0.01152872801160227,0.011808643421111166,0.012091696382415558,0.012377898054963078,0.012667259296618891,0.012959790656528258,0.013255502367900287,0.013554404340712653,0.013856506154337004,0.014161817050084811,0.014470345923673432,0.014782101317612139,0.015097091413507905,0.01541532402429074,0.015736806586358357,0.016061546151639967,0.016389549379579066,0.016720822529034982,0.017055371450103027,0.01739320157585313,0.017734317913986764,0.018078725038412083,0.01842642708073707,0.018777427721680662,0.01913173018240169,0.019489337215745577,0.01985025109740868,0.02121447361546164,0.018582006059790216,0.015952849227039958,0.01632700345197493,0.016704468643429834,0.01708524429835875,0.017469329497097764,0.01685672289542781,0.013247422727465404,0.013641426830291608,0.014038732677850349,0.014439337397619425,0.014843237766937032,0.015250430203011488,0.01566091075284881,0.013074675087774065,0.010491718516574242,0.01191203602038005,0.012335622282790054,0.01276247169341648,0.014192578334204627,0.0116259359656709,0.009062538030204507,0.009502377681784777,0.009945447820293437,0.010391741103925366,0.0108412499428153,0.011293966487908211,0.011749882619749552,0.012208989937195497,0.012671279746043382,0.013136743047582588,0.013605370527066044,0.014077152542102601,0.015552079109411863,0.012030139893059032,0.0275113241848181,0.04699562080029113,0.03648301784870069,0.03197350253221874,0.030467061129136077,0.023963679090734803,0.017463341150553015,0.013966031447600929,0.010471733657294199,0.009980431097373715,0.010492106794784586,0.011006743513514754,0.011524323754304015,0.012044829743368873,0.012568243419495286,0.013094546421058523,0.013623720072970476,0.014155745373554907,0.014690602981351154,0.015228273201846686,0.015768735974139067,0.01631197085752776,0.016857957018036288,0.017406673214865283,0.01795809778677694,0.018512208638411368,0.019068983226535413,0.019628398546224522,0.020190431116978134,0.020755056968769274,0.021322251628028865,0.022891990102006717,0.02746424685215812,0.029038995744087567,0.025616209989636533,0.024195862124757557,0.02477792403252709,0.025362366970773348,0.025949161576264774,0.026538277853252745,0.02712968515883847,0.027723352188281952,0.02831924696025385,0.028917336802030996,0.029517588334636316,0.03011996745792409,0.030724439335611274,0.03133096838025579,0.0319395182381826,0.03255005177435852,0.033162531057216664,0.03377691734343139,0.034393171062644765,0.03501125180214544,0.03563111829150102,0.036252728387144856,0.03687603905691829,0.037501006364569475,0.03812758545420979,0.038755730534728916,0.03938539486416973,0.03901653073562288,0.03564908947399374,0.03628302145455357,0.03691827613080688,0.03755480204517977,0.03819254681941303,0.03883145713868911,0.03947147873572866,0.040112556374858055,0.040754633836049166,0.04139765389893288,0.042041558326787645,0.04268628785050454,0.04433178215097166,0.04197797984143796,0.039624818465444314,0.040272234521233685,0.04092016349082124,0.04156853984722926,0.042217297043005794,0.04286636749405623,0.043515682563465406,0.04416517254531194,0.04481476664847642,0.045464392980445315,0.04611397853111225,0.04676344915657852,0.04841272956139597,0.04206174328704733,0.03571041274095554,0.0333586592878449,0.03000640336604889,0.02265356459135942,0.0183000618655646,0.013945813503704517,0.012590737355109127,0.018234750882371767,0.018877771171763716,0.019519714890678115,0.02016049824354007,0.020800036948005696,0.021438246218983367,0.02207504075268583,0.022710334710715683,0.02334404170418595,0.023976074777878213,0.0246063463944403,0.02523476841862567,0.024861252103135438,0.02848570807450648,0.03210804630346162,0.03272817604881373,0.03334600579674679,0.033961443221972774,0.03457439516764946,0.035184767630033774,0.03579246574319717,0.03639739376380533,0.036999455055964504,0.03759855207613705,0.03819458635812839,0.03878745849814796,0.03937706813994647,0.04296331395535628,0.04654609360620947,0.04612530368451913,0.04670083965742297,0.05127259583247806,0.053840465316812795,0.052404339957669493,0.05496411029395442,0.05951966552347369,0.060070893454685276,0.059617680447645746,0.06315991137376847,0.06669746958192709,0.06723023684441047,0.0677580932983184,0.07128091740422153,0.07479858590494394,0.07431097376732627,0.07481795412879334,0.07931939826431553,0.08181517554727075,0.08030515339174074,0.08278919720585928,0.0872671703608912,0.08773893414487317,0.08820434770393697,0.08766326800404957,0.09211554981317403,0.10956104564774374,0.12199960560552256,0.1364310770755024,0.15385530438874634,0.16127212845849787,0.15668138646878824,0.15708291170194677,0.15447653350969298,0.15286207734520862,0.1522393648031996,0.14860821366015975,0.15396843790860576,0.10331984784295746,-0.004337749483413478,-0.1410045489280837,-0.28968074486159356,-0.42536652800082997,-0.5260620819959118,-0.6127675802584233,-0.6984831832679028,-0.763209036286444,-0.7929452674097092,-0.8126919860759222,-0.8164492821216838,-0.8212172252801736,-0.8419958649144416,-0.8377852297956354,-0.8385853278981051,-0.8103961463407526,-0.7532176516382799,-0.7060497903963797,-0.6458924904087843,-0.5917456619582322,-0.5186091992138038,-0.4134829818056812,-0.3203668767409887,-0.27026074058590305,-0.22416442149009103,-0.17807776075889578,-0.13400059409796689,-0.08993275275322171,-0.060874064602252656,-0.03582435513328042,-0.0157834482477541,-0.0017511668912788547,0.010272666451276946,0.026288229360641846,0.0402956991302946,0.04829525242005897,0.0502870649535411,0.05027131131863449,0.050248164877321394,0.04921779774268409,0.05218038077792142,0.05513608358307631,0.05508507445544247,0.05502752034546668,0.05396358683619812,0.05689343814160411,0.05981723709413514,0.059735145105947685,0.059647322125602226,0.0595539266167292,0.05945511555554123,0.06035104443160169,0.06424186723781775,0.06412773643874412,0.06400880292966227,0.0638852160129279,0.06475712339314213,0.06862467116776244,0.06848800379600559,0.06834726405850727,0.06820259303423196,0.06805413009774619,0.06790201292282494,0.06874637748459345,0.06458735806331914,0.07642508724517377,0.07825969587943883,0.047091313029557005,0.04492006608635933,0.04774608103878783,0.04656948266987572,0.046390394600050525,0.046208939285301856,0.04602523802320467,0.04583941095900167,0.04565157709018272,0.04546185427111776,0.04527035921773931,0.04507720751227258,0.044882513608009295,0.04468639083412329,0.044488951400524265,0.04429030640274739,0.04409056582687561,0.04388983855449195,0.043688232367659674,0.043485853953926304,0.04328280891135022,0.0430792017535461,0.04287513591474716,0.04267071375488153,0.0424660365646599,0.04226120457067224,0.04205631694049071,0.04085147178933511,0.043646766186739974,0.04644229614763394,0.046238156596919364,0.04603444132936986,0.04583124299134064,0.04562865308117178,0.04642676195269574,0.0502256588078195,0.05002543166726829,0.049826167331958174,0.04962795136149145,0.049430868072890446,0.0492350005455395,0.049040430626098835,0.05184723892871222,0.054655504816478725,0.05346530636106933,0.05327672030698312,0.05308982206226193,0.05190468570630957,0.054721383997669015,0.05753998836461076,0.057360568869178924,0.05718319416651371,0.05700793148594556,0.05683484663074177,0.05666400398247648,0.056495466505346106,0.052329295756663716,0.051165551917557825,0.051004293840757206,0.05084557908896341,0.05068946395134054,0.050536003449031155,0.050385251339048906,0.050237260118104754,0.05009208102636582,0.049949764051145415,0.045810357936757314,0.04067391022079547,0.039540467307748205,0.03941007455033169,0.03928277629957608,0.04015861592054559,0.0330376358017472,0.02791987740030929,0.028805381333839877,0.028694187465970106,0.028586334941940163,0.028481862192930446,0.02838080693719202,0.028283206182651524,0.028189096229430815,0.028098512672280522,0.028011490402926484,0.027928063612328292,0.02784826579284906,0.02777212974033548,0.02569968755922466,0.009630970701849515,0.002566010099610937,0.008504836361078256,0.007447479906092113,0.007393970985993126,0.00734433966790706,0.009298615829844268,0.012256829146350805,0.012219009052241256,0.012185184703116105,0.011155384956042378,0.014129638367279549,0.01710797317899472,0.017090417279379964,0.01707699815799208,0.01706774288281068,0.017062678095896594,0.018061830012063716,0.02206522440653596,0.022072886580678297,0.022084841318270203,0.02210111285881763,0.02312172488946141,0.027146700532102174,0.02717606230859622,0.02720983209649084,0.027248031101795155,0.027290679851903168,0.02733779819464091,0.023389405303437128,0.022445519702644676,0.022506159309894882,0.022571341468987715,0.022641082960848387,0.022715400003460243,0.022794308250125347,0.022877822787610948,0.022965958134181504,0.02305872823751579,0.02315614647250881,0.02325822563895814,0.023364977959134316,0.023476415075235048,0.02359254804672288,0.014713387361573693,0.015838942987932335,0.019969224442795985,0.01910424081226223,0.01924400072490063,0.019388512331240643,0.01853778330184483,0.02169182082682216,0.024850631598077755,0.02501422176494711,0.025182596885035356,0.025355761896758193,0.025533721110466985,0.025716478204130328,0.025904036218896018,0.030096397548298924,0.03129356390708696,0.03149553628278237,0.03170231489647499,0.03191389918531637,0.03213028779580458,0.035351478573831814,0.03857746853590869,0.037808253818448,0.03804382963160474,0.038284190239493185,0.03852932895587076,0.03877923813970266,0.038033909190607285,0.034293332555093106,0.034557497754497596,0.035826393420600844,0.03310000731397588,0.030378326337545343,0.0306613365702825,0.030949023305470908,0.03424137106235044,0.03653836356179818,0.03683998367851379,0.03714621339620617,0.03645703378448567,0.044772424981875766,0.030092366170917165,0.005416835634206495,0.00874581098956382,0.009079269478080507,0.009417188107102369,0.009759543662176288,0.01010631269394762,0.010457471509622791,0.01081299616432186,0.011172862452321616,0.011537045898189761,0.011905521747810913,0.012278264959304827,0.012655250193837675,0.013036451806326885,0.013421843836040157,0.013811399997089423,0.014205093668820178,0.014602897886097081,0.015004785329486368,0.01541072831533569,0.01582069878575221,0.016234668298479495,0.016652608016674057,0.01707448869858207,0.017500280687117186,0.017929953899339983,0.018363477815839968,0.01880082147002072,0.022241953432613145,0.025686841777390005,0.025135454024965122,0.02558775709117484,0.026043717261863254,0.025503300184720367,0.028966470861028933,0.02343319363420401,0.002903432226560039,0.006377149892886742,0.009854309614461695,0.009334874182313345,0.009818806177528935,0.010306067945243025,0.010796621584128224,0.011290428935802975,0.011787451572598584,0.013287650783686433,0.01779098755021472,0.01829742249854518,0.0188069158440597,0.019319427352034707,0.01983491631870136,0.020353341558465056,0.02087466139105062,0.020398833630133006,0.023925815571895662,0.02745556396793169,0.02798803497157813,0.028523184079505385,0.029060966095059627,0.02960133511024191,0.03014424449229747,0.030689646870240617,0.03123749412131618,0.030787737358957505,0.034340326920683416,0.03789521234034929,0.03845234229384273,0.039011664540046356,0.039573125883565305,0.04013667215610357,0.040702248202462966,0.04126979786649005,0.0418392639769725,0.045410588328810335,0.048983711645435864,0.048558573519366564,0.0491351123573889,0.049713265352195495,0.05029296846956686,0.050874156435512755,0.05145676272181636,0.052040719531541456,0.05662595777826966,0.058212407045041895,0.05879999552612297,0.05938864997808784,0.059978295692700155,0.06056885648067468,0.06116025465697362,0.0617524110260802,0.062345244867251313,0.0629386739197513,0.06053261437274476,0.04712698089102296,0.0337216867373524,0.029316644002358082,0.025911763849984545,0.022506956689695275,0.022102132278529737,0.02069719978575158,0.017292067837235074,0.018886644555178383,0.023480837582235556,0.025074554058896983,0.025667700565031017,0.02626018306923051,0.026851906901553084,0.027442776737188312,0.0280326965817025,0.028621569756304734,0.029209298883136642,0.02979578587058828,0.030380931898642535,0.03096463740425049,0.03154680206674028,0.03312732479170333,0.03770610368400841,0.038283035999036125,0.03885801808460494,0.03943094534008828,0.04000171219584236,0.04057021209891988,0.04113633749883748,0.041699979833399854,0.04226102951458302,0.04281937591447957,0.04337490735130857,0.043927511075492864,0.043477073257365266,0.04702347897494776,0.0505666121862202,0.05110635567497133,0.051642590992055155,0.05217519841855303,0.05270405694772653,0.053229044271736796,0.053750036768457354,0.05426690948838353,0.05477953614164145,0.05528778908509982,0.05579153930958762,0.0562906564272209,0.056785008658841826,0.05727446282157334,0.057758884316492676,0.05823813711642694,0.05871208375387434,0.05918058530905427,0.05964350139808972,0.06010069016132555,0.06055200825178595,0.06099731082377497,0.06143645152162321,0.06186928246858476,0.06229565425588772,0.061715415933500696,0.06312841500417771,0.07853449739272994,0.09593350731259662,0.11232528697984306,0.1287096762244656,0.140086512084732,0.14545562844534773,0.14581685576932846,0.1481700209454032,0.15151494721354591,0.15185145411097023,0.15517935741832975,0.16149846910145244,0.1438085972610828,0.11210954621220927,0.07840111685507928,-0.024316892557665504,-0.1570446850332863,-0.309782462553236,-0.45153042296580703,-0.5502887565325152,-0.6440576426815274,-0.7188372472611497,-0.776627720269992,-0.8084291940092563,-0.8092417817303927,-0.8120655768513865,-0.824900652623206,-0.8437470619393685,-0.8456048370766451,-0.8234739894573017,-0.810354509652647,-0.7662463676995793,-0.7141495137145484,-0.664063878825195,-0.5929893763760279,-0.5019259033754079,-0.40787334226800753,-0.3358315630062535,-0.2778004251479924,-0.21777977971385964,-0.16876947077630014,-0.12376933687064198,-0.08477921225940309,-0.04779892805294955,-0.012828313216124682,-0.00386719545929462,0.003084598076586287,0.009027240407906728,0.012960904489831948,0.02188576306498638,0.029801988510801902,0.03470975266526444,0.03860922665443489,0.041500580754470495,0.041383984294377535,0.041259605597932375,0.04112761196164871,0.04098816965320151,0.04184144391315803,0.04568759894598404,0.045526797889411136,0.045359202774629515,0.045184974503799546,0.04500427284799474,0.044817256451544635,0.04462408283653918,0.0474249084028146,0.050219888409389596,0.04900917693422999,0.048792926838835515,0.04857128975946487,0.04734441611564394,0.05011245511880846,0.05287555476393219,0.05263386179478552,0.05238752166464103,0.05213667851891993,0.05188147519665737,0.05162205323675646,0.05135855288435044,0.05109111309727063,0.050819871552615845,0.05054496465342004,0.0502665275354149,0.049984694073883895,0.04969959689060412,0.049411367360872926,0.049120135620616304,0.04882603057357504,0.0485291798985658,0.04822971005681405,0.04792774629935527,0.04762341267450153,0.04731683203537046,0.047008126047473175,0.046697415196358144,0.046384818795308466,0.046070454993088567,0.045754440781738515,0.04543689200441216,0.045117923363256346,0.044797648427328654,0.04447617964055037,0.044153628329692066,0.04383010471238906,0.04350571790518397,0.04218057593315182,0.04485478573954696,0.047528453179882565,0.0472016829895294,0.04687457874665264,0.049547242852304094,0.05121977651208169,0.05089227970376699,0.05056485114808326,0.05023758829971653,0.052910587347686514,0.05558394320012745,0.05425774944724138,0.053932098328918585,0.05360708072884339,0.05628278617949688,0.058959302848440295,0.0576367175012011,0.05731511546881449,0.06099458063560487,0.061675195422266904,0.06135704075177505,0.061040196023057575,0.0607247391064607,0.06441074634385605,0.06509829253000973,0.0647874508767704,0.0644782929865704,0.06417088884770773,0.055865306852965216,0.04956161386650361,0.04825987534526131,0.04796015545874813,0.04766251715579706,0.047367022187624244,0.04807373111525072,0.0447827033153121,0.04149399700139961,0.04120766927184126,0.04092377616210119,0.04064237267529879,0.04036351279396365,0.03908724948861116,0.03481363473716504,0.03454271956613605,0.03527455409952766,0.032009187590529585,0.028746668448466864,0.02848704428594119,0.02823036197057735,0.030976667650200587,0.03372600674053376,0.03247842388632309,0.0322339629270644,0.031992666889149084,0.03175457799351857,0.031519737663239934,0.03128818652944275,0.03105996443717516,0.03083511045117774,0.030613662861574416,0.030395659189479438,0.030181136192519366,0.029970129870269202,0.02976267546960169,0.029558807489949043,0.029358559688475932,0.029161965085163156,0.02896905596780103,0.02877986389689171,0.02859441971045944,0.028412753528768403,0.028234894758946902,0.02806087209951735,0.027890713544831428,0.02772444638940947,0.027562097232183527,0.028403691979084853,0.032249255834623194,0.032098813271546976,0.03195238799105278,0.03181000290004014,0.03167168010852823,0.03153744093320652,0.031407305900883926,0.03128129475183619,0.031159426443051,0.03104171915137022,0.030928190276528808,0.03281885644097271,0.014713733508276164,0.004612836694971976,0.011516180780470297,0.010423780270113401,0.010335649428758246,0.010251802264377174,0.012172252522462425,0.015097013672530614,0.015026098872699366,0.014959520931039114,0.01389729228707929,0.016839425010351176,0.01978593078791206,0.019736820885263795,0.019692106102486534,0.01965179675208388,0.01961590265542199,0.020584433142176006,0.024557397038756156,0.02453480263480251,0.02451665764021759,0.024502969159233084,0.025493743683069087,0.02948898707780634,0.029488704550326473,0.02949290060478897,0.029501579016141498,0.030514742822222066,0.02953239431886672,0.016554535076726065,0.016581166024990997,0.02061228757085483,0.019647899658077055,0.019688001755296752,0.019732592839558315,0.019781671395311368,0.019835235414857374,0.019893282397125768,0.0199558093463382,0.02402281276432647,0.025094288622476604,0.02517023231641642,0.02525063862994331,0.025335501720661378,0.025424815116417726,0.02551857171318621,0.025616763772840244,0.026719382919256143,0.030826420123395464,0.030937865666456253,0.031053709093562275,0.03117393918448724,0.03129854394453151,0.031427510601523934,0.03156082560271468,0.031698474611559155,0.03284044250283498,0.03098671335609221,0.02213727046925805,0.0172920964313621,0.020451173240354847,0.0236144823818542,0.022782004825178653,0.022953720986543604,0.02312961071085644,0.023309653268993022,0.0234938273549703,0.02368211108145663,0.023874481975179097,0.02407091697222845,0.02427139241326191,0.024475884038604838,0.024684366983251587,0.02489681577176619,0.029113204306848953,0.030333505837542116,0.030557692910192304,0.030785737328667122,0.03101761013629576,0.0312532816086237,0.03149272124763069,0.031735897775853894,0.03198277913041715,0.03223333245696701,0.03248752410351642,0.03274531961419682,0.033006683722919525,0.03227158034850594,0.028539972600639,0.028811822807547603,0.030087092551396664,0.027365742686446346,0.024647733352449967,0.024933024008229845,0.02522157346984568,0.022513339931535814,0.019808280986577144,0.021106353665209774,0.02140751446780668,0.02171171937146846,0.02501892381627905,0.028329082672781974,0.027642150189119606,0.027958079942774706,0.028276824818736015,0.028598337003178886,0.028922567977075517,0.02924946850817779,0.029578988642932107,0.02991107769832782,0.030245684253680235,0.030582756142349586,0.030922240443397343,0.031264083473180895,0.03160823077688811,0.0319546271200132,0.03230321647977501,0.03265394203647924,0.03300674616482608,0.03336157042516448,0.03371835555469464,0.03407704145862015,0.0344375672012512,0.03479987099706043,0.03516389020169286,0.03552956130293157,0.03589681991162053,0.037265600750987685,0.04163583763501795,0.04200746342496775,0.042380409976491104,0.042754608103876324,0.04312998756451174,0.04350647704955481,0.043884004174571827,0.04426249547014982,0.04464187637248283,0.04502207121393389,0.04540300321357499,0.049784594461472195,0.051166765882690306,0.05154943718413607,0.0519325268107388,0.0523159519234393,0.05269962838807875,0.05308347076583793,0.05346739230367008,0.05385130492472976,0.05423511921879967,0.05761874442804186,0.03500208845457219,0.010385058005198747,0.005767558941906045,0.011149496668197263,0.011530776326853773,0.011911302813791214,0.012290980745172764,0.013669714438569,0.018047407891021654,0.018423964735310126,0.018799288186892214,0.01917328100801801,0.020545845490578182,0.024916883434309513,0.02528629610321531,0.025653984172672055,0.026019847693721607,0.02638378607766846,0.026745698086957155,0.031105481819863078,0.03246303467497162,0.0328182532985658,0.03317103354142077,0.033521270437477886,0.03786885818725512,0.03921369012261755,0.03955565865446889,0.039894655229863685,0.04023057031101154,0.040563293365266,0.037892712861424684,0.03521871628481274,0.036541190174269156,0.03686002015454293,0.03717509094227997,0.04048628633183919,0.0437934891624986,0.04309658126549604,0.043395443415845183,0.047689955304516515,0.04897999550604757,0.049265441429117124,0.04954616927502372,0.04982205401809986,0.054092969390919565,0.05535878785092325,0.055619380530021724,0.055874617193678915,0.05612436622194581,0.06036849459530388,0.06260686786038318,0.06083935007711716,0.06306580377850997,0.06728608994613691,0.0675000679702092,0.06770759559732328,0.06790852889707115,0.0691027222490737,0.07329002832550259,0.07347029805194952,0.07364338055911543,0.0728091231533788,0.07696737130624669,0.09411796860814038,0.10626075660858832,0.12039557453347804,0.1375222589432752,0.14464064338053095,0.1397505580659096,0.1398518297331413,0.140944281601345,0.1380277333912088,0.13410200134606592,0.13516689827501605,0.13822223359471728,0.11126781337141159,0.03830344057360355,-0.06867108407494599,-0.19965596037849848,-0.3506513861200555,-0.4666575539335688,-0.5656746480309338,-0.65270284121862,-0.7047422923894117,-0.7477931445188661,-0.7608555231929839,-0.7599295356655275,-0.7590152703935529,-0.7501127969171063,-0.7462221659147549,-0.7383434093305202,-0.7354765405207777,-0.7236215544024214,-0.6857784276677501,-0.6559471192079165,-0.6001275708181906,-0.5363197081788058,-0.47352344211762487,-0.39173867012033436,-0.30896527804141516,-0.2562031419582178,-0.21645212994370783,-0.17171210352096924,-0.13298291883220228,-0.0962644276858738,-0.06955647853034244,-0.047858917308761295,-0.031171588159413344,-0.02449433395680825,-0.01682699669821955,-0.009169417763721849,-0.001521438115194479,0.006117101514270251,0.01374636042963942,0.017366497789681856,0.02397767244320398,0.030580042784216693,0.03317376661044327,0.036759000992956786,0.04033590217253041,0.04390462547178495,0.04746532520754493,0.05101815460183956,0.05456326569310413,0.054100809253811805,0.05363093473323621,0.05315379023781,0.05266952253660592,0.052178277073234386,0.05168019797791795,0.05117542807974057,0.050664108919066725,0.05014638076012776,0.04962238260377125,0.04909225220037061,0.04755612606444928,0.05001413948945829,0.05246642654711667,0.05191312006040158,0.051354351572005394,0.05079025133475307,0.050220948320859146,0.04964657023599377,0.0490672435334783,0.04848309342860767,0.04789424391309602,0.04730081776964287,0.046702936586616214,0.04610072077284981,0.04549428957255189,0.047883761075645695,0.05026925220951181,0.04865087870901204,0.04802875509128808,0.04740299465715371,0.045773709509724855,0.048141010573141046,0.050505007594229295,0.04986580911775669,0.04922352245708955,0.04857825368675313,0.047930107653771675,0.047279187993758895,0.0466255971470801,0.049969436368849096,0.050310805718729645,0.04964980403365589,0.04898652890996627,0.04832107670741741,0.04765354256416507,0.049984020408682175,0.05231260295302517,0.050639381664329214,0.04996444674102671,0.04928788711560719,0.04860979047300645,0.047930243269036166,0.046249330748851805,0.041567136976367255,0.0408837448855241,0.03719923634562067,0.03451369222667082,0.03282719246479088,0.02813981612917068,0.026451641492185957,0.029762746093297973,0.03207320676244883,0.030383099595157233,0.029692499924513095,0.029001482322800316,0.027310120621835215,0.029618487933315576,0.03192665665203316,0.031234698432596672,0.030542684161483397,0.029850683950914995,0.02915876715143837,0.028467002369181732,0.027775457483108966,0.03108419965603542,0.03139329532537631,0.03070281017674273,0.03001280912688098,0.02932335632842205,0.028634515185529466,0.0309463483664162,0.03325891779714288,0.03157228463357824,0.030886509238017355,0.030201651182276426,0.02951776926635257,0.028834921537060763,0.02915316530352914,0.03247255714175816,0.0317931528773318,0.03011500756030685,0.03243817545721723,0.03476271004772287,0.0340886640009635,0.03341608914720253,0.03174503647281515,0.03407555613394296,0.036407697459200604,0.03574150892584632,0.03507703813123616,0.03441433178605742,0.03575343572310567,0.03809439489666568,0.03743725336158543,0.03678205424918628,0.03912883975715365,0.04047765113937924,0.039828528681726025,0.039181511680860114,0.038536638443293185,0.040893946293724184,0.043253471567741376,0.041615249582649075,0.04097931461291515,0.04034569989205898,0.03971443763006861,0.03808555903231865,0.040459094316871044,0.04283507271613001,0.02121352248467137,0.017594471005204376,0.021977944987989752,0.020363970610967532,0.0197525735460419,0.01914377895724744,0.017537611515995807,0.01993409541937486,0.022333254391237237,0.02173511165672642,0.021139689912059886,0.020547011316065993,0.01995709750035647,0.019369969584106413,0.01878564818876524,0.022204153446463815,0.022625504988089334,0.022049721914144817,0.0214768227748895,0.020906825572228435,0.020339747772440603,0.02277560631571746,0.02521441760692512,0.023656197484472508,0.023100961193781834,0.022548723387181654,0.021999498139311797,0.021453298962453564,0.02191013881866753,0.02537003012094552,0.024832984712465984,0.024299013836421517,0.023768128122914914,0.02324033759604074,0.02271565168712443,0.02219407924788424,0.020675628565074405,0.023160307375050662,0.02564812286267162,0.02513908163362551,0.02463318968200273,0.024130452379610874,0.02363087448391475,0.023134460150573573,0.02264121294589941,0.02215113585923677,0.024664231310587266,0.02718050113945174,0.025699946571772506,0.025222568191472283,0.024748365938410646,0.024277339121847524,0.023809486433827506,0.023344805960926352,0.022883295195918352,0.022424951049364563,0.024969769856446146,0.027517747365015218,0.026068878701745995,0.025623158342883128,0.029180580105173517,0.029741137132043727,0.03130482185943692,0.02587162598780609,0.008441540519491697,0.011014555903566809,0.013590662210218584,0.01216984920997616,0.011752106370254204,0.01133742285181968,0.010925787520768265,0.013517188955748653,0.016111615434848646,0.014709054900584759,0.014309494929492265,0.013912922728136769,0.013519325144637235,0.013128688680114518,0.013740999496948436,0.017356243416050667,0.016974405892243312,0.016595471980212547,0.016219426317534452,0.015846253127890543,0.015475936230445832,0.019108459042920703,0.019743804564329438,0.019381955340503035,0.01902289343889335,0.01866660044512815,0.018313057470407002,0.01696224516194538,0.01961414371335019,0.022268732859340987,0.02192599184390683,0.02158589938372023,0.021248433653305313,0.02091357228884342,0.020581292396589138,0.02025157056122135,0.019924382854129973,0.02259970483696295,0.02527751154640658,0.023957777457082476,0.023640476449058426,0.02332558180179461,0.023013066203615436,0.022702901761121358,0.022395060006982735,0.022089511907675115,0.025786227864922004,0.026485177696818397,0.026186330601752867,0.025889655131625736,0.025595119186833118,0.025302690022107204,0.025012334253861804,0.024724017867485376,0.02443770622458237,0.024153364070163687,0.027870955533552663,0.029590444107421166,0.027311792608073947,0.029034963148154676,0.03275991712489193,0.03248661519271346,0.03221501722334694,0.03194508228458079,0.0326767686392447,0.03641003373947275,0.03614483419910536,0.03588112575670011,0.0356188632556492,0.0363580006429632,0.04009849096334295,0.03984028633139575,0.03858333789602464,0.041327595821930116,0.04407300927575639,0.043819526391945404,0.04356709423388615,0.04231565877841593,0.04506516491899895,0.047815556457969664,0.04756677607225596,0.04731876527440445,0.04807146439384723,0.04482481257685304,0.04157874780672287,0.04133320695046602,0.03708812581637205,0.0348434392115695,0.03659908099957331,0.03435498414067746,0.03011108071675309,0.029867301971626525,0.030623578362362777,0.027379839591842432,0.024136014635102662,0.023892031785940814,0.02364781870819602,0.020403302469889827,0.018158409575813994,0.01791306601415346,0.017667197300001505,0.021420728492389386,0.023173584175480814,0.02092568841796045,0.022676964744908358,0.026427336125279484,0.026176724943817474,0.02592505296052204,0.025672241288844454,0.02641821039417154,0.03016288008766231,0.02990616949829419,0.029647997035589877,0.029388280369523553,0.030126936429167087,0.033863881396698894,0.03359903067963257,0.03233229887529506,0.035063599752494595,0.03779284623791131,0.0375199503822749,0.03724482332191757,0.0359673752637598,0.0386875154890554,0.04140515234628395,0.04112019321760683,0.040832544480709755,0.039542111494089455,0.042248798601111,0.04495250912322419,0.0446531453267551,0.048350608378861425,0.04904479830512323,0.050735613945654144,0.053422952911294216,0.053106711541445584,0.05678678486355342,0.057463066552676315,0.05913544888803113,0.06180382270963263,0.06146807737658886,0.06512810072705516,0.06678377903673238,0.06443499697591186,0.06608163758377383,0.06972358225838328,0.06936071073121368,0.06799290103087753,0.07062002946568048,0.07324197061253321,0.07285859728572731,0.07346978049960612,0.06907538945474749,0.08167529153830999,0.1072693522434695,0.13085743488170073,0.15743940008323098,0.15301510523841544,0.13958440411071363,0.13114714677245842,0.11870317978860621,0.11125234647546525,0.09579448716114936,0.09532943944308611,0.06485703844881738,-0.04862288268481306,-0.17211049159973352,-0.30860595448207123,-0.43210943310886,-0.5286210817043998,-0.611141044011507,-0.6676694508036531,-0.6952064179237105,-0.7067520449007416,-0.7073064141385887,-0.7088695905422232,-0.7234416213652018,-0.7150225360958697,-0.698612346388543,-0.6872110461690354,-0.671818611912972,-0.6634350029768742,-0.6220601619555209,-0.5676940152167739,-0.5143364737868733,-0.44998743456283186,-0.3946467817022955,-0.301314388133208,-0.22999011724874277,-0.19867382471892533,-0.15836536008384638,-0.12606456793831508,-0.09877128885914345,-0.07148536022001883,-0.044206616923581465,-0.02193489208188404,-0.00967001764212036,-0.0024118248952815224,0.006839855168103703,0.017085191605265032,0.024324353295145457,0.035557508710955976,0.04478482568976688,0.05000647120069021,0.05122261114282162,0.050433410215021124,0.05363903185752719,0.05383963822331858,0.05503539014804651,0.05722644711853295,0.056412967242949336,0.05959510722267031,0.05977302232424103,0.05894686635145355,0.05811679163155631,0.05728294902338604,0.0564454879365075,0.05360455635512337,0.0627603008558397,0.0749128665647317,0.06806239702565045,0.06720903407796067,0.06635291783722369,0.06549418673362181,0.06463297754265832,0.06376942540657067,0.06290366385580583,0.0620358248305537,0.061166038702336195,0.06029443429564747,0.05942113890964337,0.058546278339875704,0.0576699769000691,0.056792357443936764,0.0559135413870321,0.05503364872863331,0.05415279807365801,0.05327110665460437,0.052388690353516384,0.051505663723970155,0.05062214001307813,0.049738231183508605,0.04885404793551777,0.04796969972899129,0.04708529480549262,0.046200940210315594,0.04531674181453857,0.044432804337077,0.04354923136673235,0.042666125384234505,0.041783587784275086,0.04090171889752908,0.04002061801266232,0.039140383398322445,0.03826111232511041,0.037382901087530784,0.03450584502903502,0.04863003855301076,0.05475557505892814,0.04788254680208236,0.04801104479538555,0.04714115881399243,0.04627297743417755,0.04540658805814478,0.0445420769341182,0.04367952917794722,0.042819028794664676,0.04196065869999603,0.04110450074181751,0.04025063572156118,0.039399143415564886,0.04255010259013037,0.04370359099470156,0.0398596853378369,0.04501846127402888,0.06517999336396196,0.0613443549287169,0.05751161786494098,0.05768185257060983,0.056855127973586536,0.056031511566341216,0.05521106942500842,0.05439386622836699,0.05357996527829963,0.05276942852017136,0.051962316563125985,0.051158688700298466,0.05035860292894201,0.04956211597046821,0.04776928329195765,0.04298015913849086,0.042194796587209316,0.04141324761063546,0.04063556312275415,0.03986179300473683,0.039091986124334864,0.03832619035517518,0.03756445259595722,0.03680681878954974,0.03605333394198649,0.03530404214135958,0.03455898657660937,0.03481820955465114,0.031081752517396234,0.027349656074252538,0.026621960061014333,0.02589870360331888,0.022179925162848602,0.019465662581863778,0.01875595314165143,0.01805083361774416,0.020350340310087537,0.02765450903256855,0.019963375063463212,0.019276973112912592,0.04459533731054407,0.04091850109633966,0.03724649702877805,0.037579356684816115,0.03691711067664706,0.036259788682364846,0.03560741946092022,0.034960030866954137,0.03431764986706623,0.033680302555959024,0.03304801417245736,0.032420809115402266,0.03179871095941869,0.03118174247055646,0.03056992562180392,0.029963281608473672,0.029361830863459767,0.02876559307236599,0.028174587188504612,0.02758883144776515,0.027008343383352666,0.026433139840395213,0.02586323699041976,0.025298650345696495,0.024739394773450878,0.024185484509943147,0.023636933174414867,0.022093753784460834,0.024555958771267337,0.027023559979130234,0.02649656863834191,0.02597499533326802,0.025458849992110077,0.02494814189523643,0.024442879688053802,0.023943071393743277,0.02344872442586042,0.022959845600799427,0.02247644115012106,0.02199851673274429,0.021526077447001375,0.021059127842556306,0.020597671932186423,0.02014171320342718,0.01969125463007996,0.019246298683582713,0.018806847344243444,0.018372902112336605,0.017944464019062027,0.016521533638925372,0.01710411110509836,0.03369219609658644,0.03528578773641727,0.029884884433581345,0.03048948379653216,0.03009958264474262,0.025715177043503547,0.02433626234170247,0.0239628332234929,0.024594883750475034,0.02823240737100837,0.031875396890422,0.036523844403681435,0.036177741209215686,0.03083707774754605,0.0315018436021241,0.031172027540558773,0.030847617544797104,0.03052860082090813,0.03021496380561451,0.029906692174248364,0.0296037708485729,0.026306184009146243,0.023013915126255304,0.02372694701253733,0.02344526187079317,0.023168841315171457,0.022897666376634946,0.022631717508295485,0.022370974592176872,0.02211541694584728,0.017865023335156483,0.016619772007105904,0.01637964073973476,0.016144606882526245,0.015914647374865268,0.015689738753458547,0.015469857158069762,0.01525497833712857,0.015045077653214299,0.014840130088414963,0.01864011024332753,0.019444992315672663,0.019254750061641457,0.019069356766471833,0.018888785236724204,0.01871300780334647,0.018541996326177444,0.0183757221983308,0.01821415635046012,0.01805726925490577,0.017905030929724404,0.017757410942601796,0.01761437841464976,0.0174759020240879,0.017341950009810925,0.01721249017484243,0.0180874898881171,0.014966916086150965,0.011850735290186827,0.01173891364972568,0.01163141699062483,0.01152821084126629,0.011429260439913762,0.011334530737286935,0.011243986399029536,0.011157591808072097,0.011075311066890456,0.010997107999660652,0.010922946154311337,0.010852788804474454,0.017786598940424746,0.027724339211602007,0.03166597179422018,0.030611458232281806,0.030560759334606096,0.030513835145016287,0.03047064494360449,0.030431147249461016,0.030395299821751993,0.03036305966070482,0.026334383014737252,0.022309225412434477,0.03528754170534777,0.05126928602498085,0.04525441160253036,0.04524287058230653,0.04523461395820084,0.04522959158644359,0.045227752195162146,0.04522904338450681,0.045233411626697355,0.046240802264432904,0.04325115950922494,0.0402644264552415,0.04028054511957377,0.04029945648710617,0.04032110053349469,0.040345416229371725,0.040372341539807115,0.04040181342370261,0.04043376783312111,0.037468139717228385,0.03450486304487653,0.035543870848947626,0.03558509526596325,0.03562846754914009,0.03567391806580418,0.03572137629475146,0.03577077082511528,0.03582202935518369,0.03487507869272726,0.04292984474748712,0.044986252486211416,0.04004422585803498,0.036103687763459645,0.032164560105902795,0.031226763882174498,0.030290219258891846,0.025354845625480738,0.021420561651822163,0.021487285366131544,0.018554934228135193,0.014623425185076491,0.010692674735492277,0.011762599006995847,0.01583311380910305,0.01790413462525501,0.01597557656430191,0.01804735432288436,0.022119382164949554,0.02219157388567232,0.021263842764459806,0.02433610153665565,0.027408262371476658,0.027480236829687532,0.027551935816602216,0.02762326955691074,0.02769414758821643,0.03776447874367183,0.05783417105669459,0.05490313154568282,0.05197126598627712,0.053038478814565915,0.05310467313473906,0.053169750731440785,0.05323361206656135,0.0502961562807327,0.04735728121511658,0.04841688345504624,0.04847485836902771,0.04853110012128238,0.04858550166874394,0.04863795475809851,0.047688349925987944,0.04373657651017218,0.04378252268256362,0.04382607549166738,0.043867120887933625,0.04390554372890741,0.04394122777820649,0.03997405571079901,0.03900390913861188,0.03903066865335505,0.03905421386006836,0.03907442338892471,0.03909117489620309,0.04010434506222743,0.03511380959250905,0.03811944323456465,0.05912111976677138,0.05611871187353798,0.05311209096134618,0.05410112706841222,0.05408568887264653,0.05406564370595657,0.05404085755307478,0.05401119505050153,0.05397651948712496,0.053936692804962376,0.05389157560002668,0.053841027123321374,0.051784905285084636,0.060723066654493126,0.0856553663846906,0.11358165794313044,0.14150179260827087,0.1674156188245842,0.17132298156083742,0.1612237218415376,0.1581176765731192,0.1500046786056491,0.14588455687574997,0.13675713655748992,0.13462223921656696,0.12747968295844142,0.03232928270446193,-0.08282914894109744,-0.22699579981069662,-0.3721708553671643,-0.4683544954342147,-0.5935468909657208,-0.6907482010844167,-0.7369585704071685,-0.759178126882812,-0.7794069803888154,-0.7886452219433716,-0.7948929232383378,-0.8241501363075382,-0.8444168931652201,-0.8156932053975127,-0.7979790639874431,-0.7572744395854819,-0.70757928315392,-0.6578935268900047,-0.5972170853763983,-0.5405498568857068,-0.45789172481725965,-0.3752425593269304,-0.3136022191593522,-0.2539705535017297,-0.19634740366598263,-0.15573260458207944,-0.12412598610724004,-0.09352737410269532,-0.06593659130606222,-0.036353458095973956,-0.02477779319261142,-0.015209414241146718,0.0003518617686558423,0.006906218187447577,0.017453838425770918,0.0339949056892937,0.04352960269706613,0.04605811138747262,0.049580612688245956,0.053097286380153264,0.05560831100759106,0.04911386381426344,0.05161412072887753,0.0771092563494161,0.08159944379038384,0.08108485441172503,0.08056565761800355,0.08004202079953635,0.07951410933754627,0.07898208661721828,0.0784461140408626,0.07790635104118021,0.07736295509462715,0.07681608173487295,0.07626588456635008,0.07571251527788997,0.07515612365644184,0.07459685760087101,0.07403486313583213,0.0734702844257144,0.07290326378865505,0.07233394171061669,0.0717624568595262,0.0711889460994708,0.07061354450494778,0.07003638537516527,0.06945760024839001,0.06887731891633883,0.06829566943861065,0.06771277815715629,0.06812876970922324,0.06454376704033175,0.06095789143286494,0.06037126256118015,0.05978399855141882,0.05919621601951319,0.0586080300905065,0.058019554413209135,0.05743090117486592,0.056842181115829796,0.05625350354424048,0.055664976350704554,0.05507670602297471,0.05448879766062485,0.05390135498971947,0.05031448038214924,0.04672827489365887,0.04714283832368153,0.046558269270480984,0.04597466515977722,0.045392122257765,0.04481073568410775,0.044230599426463915,0.04365180635498446,0.04307444823677911,0.04249861575034927,0.041924398499985,0.041351885030124005,0.04078116283967048,0.048212318383802216,0.05264543703053315,0.05608060296267685,0.058517899065733764,0.0579574068422236,0.05739920636493075,0.05984337626126694,0.06128999370069391,0.06073913436805958,0.06019087243999019,0.05564528058771649,0.05410243001412467,0.05356239051100309,0.05302523050686887,0.05249101709290355,0.051959816037906614,0.048431691806292795,0.04490670759471785,0.04538492539044814,0.044866406024976574,0.04435120920106139,0.04383939350409787,0.04333101641340698,0.041826134316556816,0.037324802534508955,0.0368270753684983,0.036333006156176136,0.03584264731051867,0.03535605033838185,0.034873265852729284,0.03039434359100103,0.028919332453649263,0.028448280559722587,0.027981235293001165,0.027518243326212208,0.02705935063423518,0.02560460250720608,0.028154043563519283,0.030707717747139825,0.030265668298314827,0.029827937719502935,0.02939456776301845,0.028965599437271027,0.028541073017572454,0.028121028056833947,0.027705503396152367,0.027294537175284905,0.026888166843010958,0.027486429165821735,0.031089360225584887,0.03069699539527272,0.03030936930522231,0.029926515826423392,0.02954846807394986,0.029175258416506988,0.02880691848585891,0.02844347918613525,0.028084970703016483,0.027731422512796935,0.02738286339132497,0.03103932141658491,0.031700823950892534,0.031367397605820024,0.03103906821634781,0.030715860836709907,0.030397799747022853,0.030084908461345747,0.029777209735611623,0.02947472557543019,0.029177477243760873,0.02888548526845588,0.02859876944967285,0.028317348867156228,0.02904124188582847,0.03277046615033902,0.03250503855765986,0.032244975220196155,0.03199029144590874,0.03174100173856497,0.031497119804089715,0.031258658556782115,0.031025630125397215,0.03079804585909268,0.030575916333239854,0.03035925135509924,0.030148059969359698,0.030942350461983043,0.027742130363911967,0.02454740647022753,0.024358184885666524,0.024174471074677684,0.02399626988951982,0.023823585579519038,0.02365642179551268,0.023494781594155766,0.023338667442089685,0.020188081224648928,0.017043024273133853,0.017903497413765915,0.01776950101182963,0.01764103498917971,0.017518098826023953,0.017400691562568352,0.017288811802083002,0.017182457713829914,0.013081627042087582,0.011986317135300004,0.011896524992232808,0.01181224729863991,0.011733480441971846,0.011660220515036023,0.01159246331796137,0.01153020436002504,0.011473438861342326,0.011422161754419308,0.01537636767933414,0.017336050956960343,0.015301205543350314,0.017271824996450847,0.0212479024582687,0.021229430621313616,0.02021640168399469,0.023208807324584725,0.02620663868128261,0.026209886311879024,0.02621854014861007,0.027232589473138592,0.024252022910103876,0.021276828440799082,0.021306993443211086,0.02134250473660228,0.021383348604137896,0.0214295107966763,0.021480976531750916,0.02153773049241892,0.021599756825978075,0.021667039142551706,0.02173956051354199,0.021817303469952306,0.02190025000057883,0.021988381550072107,0.01908167902154455,0.016180122797752466,0.017283692783969472,0.017392368446056485,0.01750612882190652,0.017624952517176252,0.017748817700890623,0.017877702102479995,0.01801158300869142,0.01815043726037475,0.0182942412491443,0.018442970913916373,0.01859660173732325,0.018755108742004627,0.018918466486776482,0.019086649062678804,0.019259630088901834,0.0194373827085925,0.019619879584540673,0.019807092894746876,0.019998994327871538,0.020195555078566522,0.02039674584268982,0.020602536812404246,0.020812897671160298,0.021027797588564646,0.021247205215134436,0.021471088676938657,0.021699415570126782,0.021932152955346024,0.022169267352047693,0.022410724732683615,0.02265649051679339,0.022906529564983312,0.023160806172798004,0.023419284064485197,0.023681926386655245,0.023948695701835457,0.02421955398192084,0.02449446260152198,0.0247733823312107,0.025056273330664944,0.025343095141713522,0.02563380668128188,0.02592836623423981,0.026226731446152275,0.026528859315934183,0.026834706188410173,0.027144227746780828,0.03145737899876133,0.03277411424236676,0.035094387011344035,0.03841815001583951,0.038745355084536304,0.03907595311449776,0.03940989404118765,0.0397471268255504,0.04008759944568388,0.04043125888843011,0.04077805114088526,0.04112792118183002,0.04148081297308208,0.04183666945077165,0.042195432516541925,0.04255704302867523,0.04592144078847116,0.04928856450784991,0.04865835175506579,0.049030738905028,0.04940566111605218,0.049783052322133196,0.05016284522515485,0.05054497128547916,0.05092936071247603,0.05131594245499465,0.05170464419177845,0.05209539232182541,0.052488111954695486,0.052882726900767105,0.04927915966767892,0.04867733147698659,0.0470771623010362,0.043478570906028996,0.04488147489660369,0.045285790751026705,0.042691433834525574,0.04009831841258635,0.041506357684480216,0.04191546381364214,0.03832554793775832,0.036736520185061676,0.03914828970930642,0.03756076471381033,0.03397385245989046,0.03438745929086792,0.03580149066696765,0.03321585118150176,0.030630444570807623,0.031045173744440088,0.03145994082003384,0.031874647136341375,0.032289193247566704,0.0327034789130246,0.033117403086803894,0.033530863907437244,0.033943758687580025,0.03435598390370061,0.03476743518578493,0.03517800730705766,0.035587594173722724,0.03599608881472585,0.03640338337154146,0.036809369087987015,0.03721393630006735,0.037616974425851435,0.03801837195538465,0.03841801644063926,0.03881579448550573,0.039211591735827694,0.03960529286948377,0.0399967815865184,0.04038594059932521,0.04077265162288558,0.041156795365065266,0.037538251523206424,0.036916898801046136,0.03729261494284668,0.03766527675824413,0.03803476012534937,0.03840093998301462,0.03876369032162101,0.039122884173948186,0.039478393606129744,0.03983008970869715,0.0401778425877157,0.040521521356015444,0.04086099412452061,0.04119612799368059,0.04152678904500574,0.04185284233271144,0.04217415187547385,0.0424905806483005,0.052801990558932685,0.07310824234643866,0.07040919535991738,0.06870470732330317,0.06699463423122758,0.06427883036503124,0.06455714834008701,0.06082943914859097,0.05909555220249954,0.06235533537661698,0.06560863502222322,0.06585529593254186,0.07109516128499077,0.09932807253683897,0.1285538691480262,0.1547723880610088,0.18198346303739055,0.17618692402590708,0.16538259675192044,0.15757030264065125,0.15274985896816334,0.14792107904839658,0.12308377241260945,0.11123774507007811,0.03638279996851263,-0.09748126205745916,-0.22135464044605002,-0.38223753214825446,-0.4881301283500925,-0.5870326111727973,-0.6919451507063045,-0.7508679024274787,-0.8048010049859246,-0.839744578454012,-0.8446987230660575,-0.8316635184528836,-0.8306390233764366,-0.8616252757244299,-0.8546222924112008,-0.8326300691925775,-0.8046485807205056,-0.7406777810182353,-0.6827176043791887,-0.6337679666115753,-0.5698287664276962,-0.47389988691091683,-0.37098119726760737,-0.31307255493107683,-0.26217380766213577,-0.21128479527845484,-0.16540535104077883,-0.12153530289082855,-0.08367447460947389,-0.060822686864010364,-0.04097975808063917,-0.016145505125010867,0.002680256126555758,0.006497710272181878,0.013307041988204427,0.03510843576096598,0.05490207560322166,0.056688144675666935,0.05646682494450786,0.056238297009110205,0.05600274006387493,0.05576033190081775,0.05551124891544132,0.055255666112778073,0.054993757113599745,0.05472569416078901,0.05445164812586864,0.05417178851568455,0.05388628347923777,0.05359529981466141,0.053299002976338744,0.052997557082157504,0.052691124920896976,0.052379867959743365,0.05506394634725381,0.05774351889773713,0.056418743053929965,0.05608977485446154,0.0597567689216886,0.06141987844340083,0.059079255135923214,0.0607350492182257,0.06438740940171231,0.0640364828645131,0.06368241521339335,0.06332535046444747,0.0629654310456928,0.062602797805972,0.06223759002392723,0.06086994541860022,0.06350000016009696,0.0661278888647264,0.06575374456370042,0.06537769866721166,0.06499988095038275,0.06462041955796688,0.06423944101376808,0.06385707023010256,0.0634734305172983,0.06008864359790474,0.05670282963963792,0.05731610731017528,0.05692859382729941,0.05654040498256885,0.056151655149421636,0.05576245729129589,0.05537292297132308,0.054983162362032545,0.050593284261298666,0.04920339612855633,0.048813604138163755,0.04842401322341401,0.04803472709872336,0.04764584827090447,0.047257478048872786,0.046869716553343474,0.045482662728073886,0.046096414354208054,0.0627110680365487,0.06432671910096695,0.05894346143567923,0.059561387404195934,0.059180587856436845,0.05880115215696159,0.058423168196023556,0.058046722397472564,0.05767189972817996,0.05729878370742529,0.05292745642247722,0.05155799856439405,0.05119048948092422,0.050825007220008836,0.050461628551414575,0.05010042897740588,0.0497414827418059,0.04938486283900319,0.04803064102446085,0.043678887836078054,0.04332967263731255,0.04298306366959341,0.04263912808752558,0.04229793197376738,0.04195954034760656,0.041624017173468544,0.041291425369354165,0.041961826813647726,0.039635282350293094,0.0403118517985713,0.06199159393318737,0.06067456635829398,0.05136082532688295,0.049050425678552584,0.04374342092370374,0.03543986337129426,0.03013980426741915,0.02484329395094957,0.02255038199973313,0.02726111733306376,0.026975548245482532,0.02669372238749402,0.02641568674463192,0.026141487636693606,0.025871170724673147,0.02560478101759872,0.025342362879273238,0.025083960034917103,0.02482961557771175,0.02457937197524317,0.024333271075844327,0.024091354114835206,0.02385366172065952,0.02362023392091712,0.023391110148291087,0.023166329246368585,0.022945929475354166,0.022729948517674806,0.02251842348347598,0.022311390916007194,0.022108886796896588,0.021910946551313544,0.0217176050530182,0.02152889662929729,0.021344855065785227,0.021165513611169848,0.020990904981781446,0.02082106136606493,0.020656014428933757,0.020495795316005143,0.020340434657715525,0.02018996257331579,0.020044408674745336,0.01990380207038419,0.01976817136868237,0.019637544681666036,0.019511949628319574,0.01839141333940131,0.02127596246213398,0.029165623141389638,0.02506042095710581,0.022960380863133432,0.023865527183625293,0.023775883640468783,0.023691473365002734,0.023612318897135404,0.02353844218589062,0.023469864591381423,0.023406606886652165,0.023348689259388433,0.023296131313494346,0.023248952070536705,0.023207169971055354,0.02217080287729815,0.018139868086731736,0.018114382367238082,0.018094362001527316,0.01807982281426969,0.018070780178829186,0.018067249017625887,0.018069243802361343,0.018076778554106422,0.01808986684325136,0.01810852178931778,0.01813275606063204,0.018162581873859822,0.01719801099496045,0.02023905474000134,0.023285723960246824,0.023338029000610105,0.023395979653289094,0.0234595851330825,0.02352885407126864,0.023603794514019085,0.023684413920671284,0.02377071916185941,0.023862716517503955,0.02396041167465928,0.024063809725219244,0.024172915163480996,0.024287731883566286,0.02740826317202448,0.030534511681590184,0.02966647938297679,0.02980416752120406,0.02994757659827929,0.030096706371322307,0.0302515558505477,0.030412123295545906,0.03057840621142158,0.030750401344789284,0.030928104679626943,0.031111511432986537,0.03130061605056258,0.03149541220211848,0.027695892783005154,0.026902049935799942,0.02711387508894871,0.027331358985914656,0.02755449169236488,0.027783262592305475,0.02801766038251728,0.028257673066850782,0.027503287951939615,0.02375449165368422,0.024011270125416685,0.024273608695277914,0.024541492086311,0.024814904416153614,0.02509382919035784,0.025378249295571868,0.02666814699102591,0.02396350389988076,0.021264301016026305,0.021570518737240345,0.02188213690288792,0.02219913480966424,0.022521491208499975,0.022849184296655962,0.023182191709684767,0.023520490513258732,0.02486405719330718,0.02221286764602157,0.019566897183315557,0.019926120564650974,0.020290512033409515,0.02166004532975558,0.019034693684666593,0.01641442982474548,0.016799226003402522,0.017189054036585792,0.01858388531500637,0.015983690797534485,0.013388441015380927,0.013798106102651683,0.014212655831454597,0.014632059625063087,0.01505628655225414,0.014485305318408442,0.010919084267400264,0.011357591405188792,0.011800794432642585,0.012248660761101038,0.011701157509115302,0.008158251503748964,0.00861990930358364,0.009086097230962147,0.010556781385414014,0.00803192763670594,0.010511501619338906,0.04499546867705777,0.05148379362800829,0.04497644040041853,0.0474733717897447,0.047974549408978884,0.04847993369184316,0.04898948387873324,0.04950315800099832,0.05002091286823457,0.050542704055475465,0.04706848589651514,0.0465982114973932,0.047131832766924814,0.04766930043778102,0.04821056406565063,0.0487555720173962,0.04930427145755666,0.04985660833475651,0.04941252736958166,0.045971972053274864,0.04653488466816279,0.04710120631734678,0.04767087693716231,0.04824383528929142,0.04882001894655687,0.04939936427863449,0.049981806437685114,0.05056727934390762,0.05015571567257353,0.04674704685189615,0.047341203082646915,0.04493811337172707,0.04253770556722726,0.04413990639497784,0.044744641484121106,0.04135183537235683,0.03996141151735888,0.042573292326834045,0.04118739917761145,0.03780365241908775,0.03842197139220335,0.04004227445927549,0.03766447901507621,0.03528850149162648,0.035914257383204945,0.0325416612822218,0.03117062691504944,0.0338010671778119,0.03243289415499083,0.029066019122407895,0.029700352565759397,0.03133580421002857,0.02897228303016438,0.02660969725549782,0.02724795439439489,0.027886961263562167,0.02552662400018625,0.02316684807405474,0.024807538316805586,0.02544859894648678,0.0260899335656075,0.027731445142035398,0.025373035989886758,0.023014607767557538,0.02365606150224872,0.024297297619168275,0.024938215948915196,0.02457871571772407,0.028218695533041745,0.04185805333794182,0.060496686264241456,0.06113449036561919,0.05777136035386826,0.05940718947388849,0.060041869490922356,0.06067529069028657,0.058307341866221434,0.055937910327916826,0.057566881928951694,0.058194141092094566,0.05881957080764738,0.056443052620921655,0.05406446663846359,0.05568369155770754,0.05630060469200483,0.05691508196921077,0.058526997913184275,0.05613622562534841,0.053742636783459516,0.05434610166694033,0.05494648918695894,0.056543666893202026,0.05413750096202137,0.05172785619557062,0.05231459604752222,0.05289758265354716,0.05347667684006377,0.05405173811437693,0.05562262464867965,0.06018919325324498,0.06075129932790119,0.06430879679958687,0.067861538058459,0.0664093738941159,0.06295215345375924,0.06348972424879634,0.06102193219118223,0.05954862162989169,0.0590696353859664,0.05558481478925842,0.05509399971843239,0.06159702863176157,0.07209373853728683,0.08758396485090822,0.10806754112994345,0.12654429869618616,0.16401406615781866,0.18047666882550883,0.16693192813335622,0.16037966131719159,0.1528196814328393,0.14625179753354847,0.1346758148616431,0.13509153503881208,0.12749875623633763,0.01689727347333929,-0.10871312041144393,-0.24433263268414535,-0.39796146775474,-0.5205998238043091,-0.5992478894198655,-0.69490584063886,-0.7695738384968832,-0.809252026924253,-0.8439405310273336,-0.8546394558699185,-0.8473488857297398,-0.841068883775546,-0.836799492060319,-0.8325407316420378,-0.8322926027010574,-0.7940550846774879,-0.7438281366233959,-0.6916116979631058,-0.6214056896366569,-0.5562100155001748,-0.46002456394263,-0.3578492097735414,-0.2846838163894184,-0.2305282379711256,-0.17638232137706475,-0.1392459076604843,-0.1101188333044358,-0.08500093121178899,-0.06989203147368904,-0.0457919619756878,-0.02470054892416032,-0.0016176173725017673,0.01945700823107152,0.02552350351775262,0.02958204378012727,0.033632803716457244,0.03767595729050041,0.04171167762737332,0.04574013691272058,0.04976150629206988,0.05377595577036798,0.055783654114810705,0.055784768773431914,0.05577946582503335,0.055767909960451334,0.05575026447956949,0.05572669129160507,0.05569735091554695,0.05566240248074136,0.0556220037276218,0.05557631100857846,0.055525479288963814,0.05546966214823007,0.05540901178119512,0.05534367899943235,0.055273813232781493,0.0551995625309758,0.05512107356538268,0.05503849163085359,0.05495196064767939,0.05686162316053084,0.06276762031879399,0.06367009182115188,0.05956917584934768,0.05946500904567681,0.059357726537322936,0.05924746196233323,0.05913434747852668,0.0590185137662423,0.05490009003739277,0.05377920406484826,0.0536559822290294,0.05353054955521053,0.05340302972905987,0.053273545101324676,0.0541422166894511,0.051009164179253344,0.047874505942214776,0.0477383590793288,0.04760083946965571,0.04746206179709603,0.04732213955849428,0.04618118506865701,0.04203930947631007,0.04189662280190176,0.04175323398478148,0.04160925091325324,0.041464780434384535,0.04131992835759582,0.041174799458261954,0.044029497476647333,0.04688412509814456,0.04573878391169617,0.04559357437289467,0.04944859578734351,0.05130394628778051,0.04815972279405034,0.05401602098242114,0.0698729352361862,0.06673055851364626,0.06358898219269635,0.06444829601047157,0.06430858808246298,0.06416994492005242,0.06403245143243705,0.06389619092852701,0.06376124512037316,0.06262769412812297,0.05849561649585358,0.058365089229191286,0.058236187842245865,0.05810898638736135,0.05798355746456421,0.05785997222473464,0.05773830037273353,0.05861861016892497,0.05550096843065107,0.0523854405492435,0.052272090533481,0.0521609810576695,0.052052173487847714,0.051945727889233004,0.05184170302893415,0.051740156378605004,0.05164114411703809,0.05154472113269634,0.049450941029298645,0.04535985614692746,0.0412715176142428,0.03718597543180191,0.0361032785662204,0.03502347502867785,0.029946611931531343,0.025872735549532948,0.025801891401235927,0.02273412432565059,0.018669478541679708,0.014607997715270254,0.015549725040515057,0.019494703295737426,0.02044297484026784,0.02039458157217415,0.020349564893702515,0.020307965700014714,0.020269824378751664,0.020235180811070314,0.0202040743725943,0.020176543934277393,0.02015262786317877,0.020132364023149094,0.020115789775426426,0.020102941979141125,0.02009385699172876,0.020088570669249985,0.020087118366616672,0.01908953493928193,0.022095854744834522,0.025106111628910553,0.025120338884511068,0.02513856920654573,0.025160834668098105,0.02518716671529484,0.02521759616674996,0.025252153212907857,0.02529086741528399,0.025333767705602778,0.02538088238483181,0.02543223912211161,0.025487864953580346,0.02554778628109276,0.025612028870832627,0.02568061785181816,0.025753577714299546,0.02583093230804822,0.025912704840537072,0.02599891787501106,0.026089593328447708,0.02618475246940684,0.026284415915769056,0.026388603632362412,0.02649733492847673,0.026610628455265115,0.0267285022030322,0.02685097349840858,0.02697805900141108,0.027109774702388345,0.02724613591885136,0.027387157292188536,0.02753285278426495,0.027683235673905418,0.026838318554819468,0.029998113333409765,0.03316263121087665,0.033331882638708774,0.033505877269380084,0.03368462392874943,0.033868130607045493,0.03405640445440913,0.03424945177631694,0.034447278028886065,0.03464988781405982,0.034857284874674294,0.035069472089405605,0.035286451467597756,0.03550822414397113,0.03573479037321142,0.03596614952443901,0.03620230007555886,0.036443239607490956,0.03668896479828116,0.036939471417092695,0.037194754318078296,0.0374548074341331,0.03771962377052852,0.03798919539842709,0.038263513448278615,0.0385425681030976,0.03882634859162245,0.03911484318135657,0.035408039177726044,0.03370592294494061,0.03600847994544097,0.03431569476676004,0.030627551132681598,0.030944031929868915,0.03126511924684667,0.03159079439416408,0.030921037904181027,0.027255829535415558,0.02759514829859837,0.027938972491965548,0.028287279719293575,0.02764004688911846,0.02399725021851896,0.024358865258609294,0.0257248669277145,0.023095229527290845,0.02046992675306089,0.02084893172630188,0.021232217029702367,0.022619754719731405,0.020011516320198035,0.017407472826614583,0.017807594736951777,0.018211852086964814,0.019620214462036368,0.017032650990212703,0.014449130346048056,0.014869620780843973,0.015294090157463705,0.015722505963225775,0.01615483530399485,0.015591044895056999,0.012031101062807581,0.012474969768163369,0.012922616639230285,0.013374006986731343,0.013829105799078138,0.014287877731114555,0.014750287092767843,0.012216297842284132,0.009685873598076662,0.011158977672305115,0.01163557309969003,0.012115622639742613,0.013599088761762607,0.011085933629750057,0.008576119104376688,0.009069606771369705,0.009566357974488286,0.010066333826596809,0.011569495200394596,0.01007580271283072,0.011585216714115262,0.03309769724859686,0.03661320390801742,0.03213169560831772,0.03365313044585731,0.034177465673574686,0.030704657711363506,0.030234662161052663,0.030767433835342556,0.03130292677887825,0.03184109426743277,0.02838188880234664,0.027925262123604314,0.02847116523998999,0.02901954844982739,0.029570361339835673,0.02612355277924745,0.02467907093412871,0.027236863300342674,0.025796876723986777,0.022359057406186572,0.02292335092342053,0.023489702260259922,0.024058055823352423,0.023628355435092223,0.02020054433191614,0.020774565184372012,0.021350360126491632,0.021927870767973232,0.023507038184498917,0.028087802890864377,0.028670104792246465,0.03225388312140342,0.034839076375836754,0.03642562225491615,0.04101345759541071,0.042602518303869,0.03919273929520166,0.03778405447019897,0.03737639673977849,0.03396969806479159,0.0345638894942457,0.03215890120194422,0.030754662519986795,0.030351101972249238,0.026948147309403443,0.027545725545478916,0.0291437629881747,0.026742185248895923,0.024340917248103104,0.024939883240913775,0.021539006853607004,0.021138211118563434,0.01973741851075987,0.017336550984262067,0.01793553000715868,0.014534276594938528,0.014132711343871666,0.01473075446439625,0.015328325800485557,0.015925344827203987,0.016521730637364403,0.01711740192664067,0.01771227697869599,0.018306273650329073,0.01889930935664008,0.019491301056218588,0.020082165236355448,0.020671817898280716,0.021260174542429743,0.0218471501537394,0.022432659186976706,0.024016615550543217,0.021598932590316082,0.02817952307508631,0.049758299133720665,0.04733517207546935,0.04491005216979483,0.04648284853691052,0.04705346914123877,0.04762182079115511,0.04818780912320074,0.048751338586351445,0.04931231242790417,0.04987063267942488,0.05042620014276024,0.0509789143761154,0.05152867368020049,0.05207537508444827,0.051618914334864166,0.04815918589286289,0.04869608295600471,0.049229497488165165,0.04975932023264383,0.050285440705097884,0.050807747180330744,0.05132612667917306,0.05184046495545883,0.05235064648309945,0.052856554443258534,0.05335807071163049,0.05385507584582562,0.053347449074423396,0.05683506828613828,0.06031781000351476,0.0607955493302443,0.0612681598939281,0.061735513810785354,0.06219748166919297,0.06265393251803231,0.06310473385517025,0.06354975161607784,0.06698885015791399,0.07042189222504987,0.06984873889292018,0.07026924951670135,0.07068328170664094,0.07109069131913127,0.07249133244638616,0.069885057404724,0.07227171673081303,0.12065115910639196,0.1510232310010557,0.16838777599258445,0.17774463405472635,0.16409364109298893,0.15643462879858272,0.14776742475194085,0.1440918526246326,0.12740773237836348,0.08571488053432276,0.05601311067186224,-0.036697765742178104,-0.17041793800334068,-0.3091475940024725,-0.4478869172697505,-0.5566360836646618,-0.6303952582122538,-0.697164592441017,-0.7429442223112387,-0.7417342666777124,-0.7395348263413521,-0.7513459836663284,-0.7541678024587913,-0.7440003278702703,-0.7358435863771765,-0.726697585904996,-0.7265623160207901,-0.7024377481238738,-0.654323835742209,-0.6152205151340271,-0.5651277062102588,-0.4960453136577657,-0.4109732282898691,-0.3329113287176954,-0.27485948323168047,-0.21681755162203306,-0.1757853867667124,-0.1417628359666607,-0.10674974204855689,-0.0747459442974403,-0.040751279312725514,-0.023765581817226905,-0.014788685349058167,-0.001820422758480128,0.010139373449775613,0.02209087081959804,0.03503423664212349,0.04296963765612799,0.044897239781353765,0.04481720793308269,0.04472970593509787,0.04763489649206373,0.049532941166767847,0.04942400034195918,0.04930823318548147,0.045185797642077585,0.044056850459654046,0.043921547235973996,0.043780042456160684,0.043632489508538624,0.04347904068971939,0.04331984720827933,0.04315505918858434,0.04298482567475803,0.04280929463478925,0.042628612964775714,0.042442926493299366,0.04225237998593048,0.04205711714985663,0.041857280638632643,0.04165301205704819,0.03944445196922708,0.0492317399006021,0.0620150142792107,0.05579441228825231,0.05557006972809772,0.05534212098126445,0.0551106990351546,0.054875935497089495,0.05463796060007926,0.054396903208675976,0.05515289082334769,0.05190604958493006,0.04865650429473729,0.04840437846124099,0.04814979435149164,0.047892873020784196,0.04763373432368137,0.04737249692041905,0.04710927828336725,0.04684419470354366,0.04357736130185194,0.040308892059070386,0.04103889986770526,0.04076749657920847,0.0404947930247372,0.04022089902036187,0.039945923372307,0.03966997388378031,0.039393157361828565,0.039115579624217925,0.041837345501660086,0.044558558821353705,0.043279322368721604,0.04299973785383743,0.04271990590436056,0.042439926074065604,0.0421598968513783,0.041879915666356446,0.04160007889767199,0.04532048187335762,0.04604121885128741,0.04576238298250669,0.04548406628390535,0.04520635963270128,0.04492935277182136,0.04465313431682574,0.044377791762814714,0.04310341149287464,0.038830078797412376,0.03855787791528657,0.03828689208426447,0.03801720357430581,0.03774889370055408,0.03748204283006108,0.03721673038847692,0.0369530348667039,0.03669103382751181,0.03643080391211312,0.036172420846695724,0.03591595944891163,0.03666149363276097,0.033409096413428145,0.030158839927654356,0.02991079548055542,0.02966503359706188,0.029421624051483283,0.029180635878312135,0.028942137378293084,0.028706196124431857,0.028472878967942136,0.028242252044128592,0.028014380778204576,0.027789329891042693,0.027567163404856584,0.028347944647253875,0.024131736256775844,0.02291860020550837,0.01970859784655586,0.016501789975466398,0.04129823685573,0.04609799810859712,0.03990113248591827,0.04070769771303983,0.0405177504734505,0.04033134643386672,0.04014854025208608,0.03996938558007658,0.03979393506853479,0.039622240371353014,0.03945435214999388,0.039290320077771605,0.03913019284403811,0.038974018158273026,0.03882184275407643,0.038673712393062866,0.03852967186865584,0.03838976500978124,0.038254034684458864,0.038122522803291016,0.037995270322846726,0.03787231724894092,0.03775370263980737,0.03763946460916435,0.03752964032917221,0.03742426603328184,0.03732337701897296,0.03722700765038151,0.036135191362373864,0.03204796067541859,0.03196534723216571,0.031887381843263174,0.031814094515913355,0.03174551446205147,0.031681670100172935,0.03162258905704315,0.0315682981692894,0.03151882348487383,0.03147419026444709,0.031434422982581756,0.031399545328885115,0.0313695802089906,0.031344549745427254,0.03132447527836676,0.03130937736624735,0.03129927578627424,0.03129418953479582,0.03129413682755533,0.03129913509981751,0.03130920100636969,0.03132435042139695,0.03134459843823087,0.03136995936897153,0.031400446743982416,0.03143607331125782,0.03147685103566233,0.031522791098042256,0.03157390389420859,0.03163019903379118,0.031691685338964,0.0317583708430411,0.03183026278894322,0.03190736762753465,0.031989691015830296,0.032077237815072816,0.03217001208867951,0.03226801710005909,0.03237125531029799,0.032479728375716305,0.03259343714529318,0.032712381657961725,0.03283656113977332,0.03296597400093138,0.03310061783269462,0.03324048940414971,0.033385584658853634,0.033535898711345595,0.03369142584352866,0.033852159500921346,0.034018092288779084,0.034189215968086,0.03536552144985834,0.032546998789318424,0.03873363718149805,0.0549254249161887,0.0521223492392453,0.05032439618726492,0.04853155051721365,0.044743795732560744,0.045961114137340595,0.04718348687606022,0.04341089394698355,0.041643314215289606,0.040880725451043265,0.037123104377951396,0.037370426720435945,0.03862266724278991,0.035879799767948084,0.033141797191459,0.033408631515597295,0.029680273894265058,0.027956694677772585,0.030237863457499185,0.028523749093289995,0.024814319725148085,0.025109542800395245,0.026409385111626327,0.02371381281584404,0.02102279144724408,0.02133628595014793,0.021654260716498334,0.018976679606097016,0.0173035059651721,0.017634702658862446,0.017970232100474742,0.018310056260369474,0.015654136665387078,0.013002434413753303,0.014354910211699212,0.01471152440530011,0.015072236985713632,0.012437007583404235,0.009805795480969014,0.011178559649241748,0.011555258778620903,0.007935851290036294,0.007320295350493444,0.007708548905665871,0.008100569704598153,0.008496315302493153,0.004895743058729474,0.003298810155048161,0.005705473632351098,0.004115690414939678,0.005529417311284313,0.02694661097418106,0.030367227754834056,0.025791223482037308,0.027218553320761205,0.02764917175066909,0.028083032572605884,0.028520088899418584,0.028960293143578564,0.029403597006282815,0.029849951466476732,0.030299306769799594,0.030751612417454006,0.03120681715500044,0.03166486896107827,0.032125715036054533,0.03258930179060165,0.0330555748342055,0.03352447896360519,0.03399595815116575,0.034469955533185326,0.03494641339813806,0.03542527317485432,0.03590647542063945,0.036389959809332725,0.03687566511930784,0.03736352922141653,0.03785348906687679,0.03834548067510734,0.03783943912306833,0.034335298545461926,0.034832992156704545,0.0363324522806449,0.03383361036309134,0.03133639697961936,0.03184074186359884,0.03234657393885661,0.02985382133515526,0.027362411403634865,0.028872270749364354,0.02938332525918349,0.02589550010925106,0.02440871977879777,0.026922908082554764,0.025437988192245645,0.021953882642468184,0.022470513352139933,0.023987801656834035,0.021505668322393118,0.019024033552292284,0.0195428170152498,0.020061937877501344,0.017581314817918824,0.015100866043120852,0.016620509319721692,0.01714016200190003,0.017659741032468756,0.021179162923682396,0.02469834371934282,0.02421719893664672,0.02473564351271497,0.025253591777626858,0.025770957443050767,0.02628765359088725,0.02680359266036805,0.027318686435171796,0.02783284603055861,0.028345981880525752,0.027858003726545254,0.032368820604768415,0.044878340798968366,0.04138647172805023,0.03989311982580056,0.041398190495485564,0.04190158811592097,0.04240321603822951,0.04290297657017114,0.04340077096207601,0.04389649939438262,0.04439006096522513,0.044881353678072,0.0453702744294189,0.045856718996538065,0.0463405820252869,0.04682175701797831,0.047300136321315446,0.047775611114393456,0.04824807139677103,0.048717405976614336,0.04918350245891619,0.04964624723379317,0.05010552546486351,0.05056122107770855,0.051013216748420714,0.05146139389224082,0.051905632652287634,0.05234581188838277,0.052781809165973706,0.05321350074515811,0.0536407615698125,0.05406346525682819,0.05448148408545792,0.05489468898677595,0.05530294953325514,0.05570613392846407,0.05610410899688744,0.05649674017387313,0.05688389149570913,0.057265425589833815,0.05764120366518281,0.058011085502676064,0.06237492943961389,0.06373259233395794,0.06508392951005923,0.07142879469986453,0.08476703995466636,0.10209851546505572,0.14342306922205966,0.16374054647270894,0.15405078909317127,0.15135363517870995,0.1516489189595764,0.1499364708558049,0.14321611752751998,0.14548768193167172,0.14275098338520192,0.05600583774063386,-0.05274794188170254,-0.1625105434198233,-0.29928215341047953,-0.44606295406797336,-0.5268531201102504,-0.6186528157156895,-0.6984621919425695,-0.730281384590951,-0.7401105125443713,-0.7549496767472181,-0.7747989596665862,-0.7776584249144236,-0.7675281169520332,-0.7594080609922651,-0.7502982631103132,-0.7511987104337423,-0.7221093713338217,-0.658030195767788,-0.6039611160432432,-0.5669020479922184,-0.4938528922665574,-0.39381353573280375,-0.31178385322220914,-0.25876370957351796,-0.20575296155082085,-0.167751459396452,-0.139759048065692,-0.11177556821341844,-0.08380085699349445,-0.054834748773768996,-0.03587707582592006,-0.02092766895585582,-0.004986358023242737,0.01094702763113159,0.023872658794045515,0.02979070601834244,0.02970133934111291,0.03160472812052184,0.040501040953869166,0.04439044558959668,0.04727310880362265,0.05414919627584924,0.06101887247151344,0.06488230050399871,0.06973964199157207,0.06659105694233211,0.06343670369853688,0.06427673894810032,0.06411131776117099,0.06394059360814677,0.060764718366915715,0.0575838423489321,0.058398114348801156,0.058207681689311924,0.05801269024009484,0.05481328442548625,0.051609607251210055,0.05240180035454889,0.052190004049946004,0.05197435734821346,0.05275499795869493,0.04953206229152454,0.04630568547712316,0.04607600141228063,0.045843142810999826,0.04660724123204335,0.04336842708785643,0.04012682966447592,0.039882577168008304,0.03963579677585355,0.039386614666173755,0.03813515603028059,0.03988154508196512,0.04862590504662204,0.053368358091200094,0.05310902520432681,0.052848026096743106,0.05258547916256884,0.05232150147801695,0.052056208807939486,0.051789715612409096,0.05152213505333371,0.051253579001100696,0.0509841580412486,0.050713981481163004,0.05044315735679379,0.05017179243939178,0.04989999224226094,0.049627861027524575,0.04935550181290206,0.04908301637849409,0.04781050527513209,0.050538067832730765,0.05826580214526211,0.05799380500585133,0.05772217182160633,0.05745099656584762,0.05718037177241224,0.056910388542415105,0.05664113655099676,0.05637270405405502,0.05610517789495864,0.05583864351124024,0.05557318494126698,0.055308884830886265,0.055045824440044716,0.05478408364937837,0.054523740966771844,0.05426487353388461,0.054007557132642575,0.05375186619169266,0.053497873792818965,0.05324565167731811,0.05299527025233268,0.05274679859714,0.05250030446939549,0.052255854311328134,0.05201351325588671,0.05177334513283516,0.05153541247479519,0.052299776521676306,0.04906649722504991,0.04583563326805257,0.045607242111727106,0.045381380045979344,0.042158102223328345,0.03993746269103494,0.03971951443719351,0.03950430943364068,0.03929189865853479,0.03608233210951513,0.032875658832377926,0.03367192697150202,0.03347118381552669,0.03327347581645931,0.030078848597798233,0.02688734698128343,0.027699015036949694,0.027513896128426196,0.023332032937894598,0.02215346749564318,0.021978241226684472,0.021806394989497723,0.021637969092867113,0.01747300330795995,0.016311536899023028,0.016153608671137645,0.01599925700853558,0.01584851989100604,0.01970143489306855,0.020558039161234904,0.022418369370917856,0.025282461678572014,0.02515035167530038,0.029022074341925694,0.030897664002408523,0.02777715427716975,0.024660578065930472,0.02454796757877225,0.024439354382685404,0.02433476942775635,0.024234243054551668,0.024137804996725878,0.02404548438352801,0.023957309742206202,0.023873309000309643,0.023793509487887138,0.02371793793958158,0.02364662049661964,0.023579582708696072,0.023516849535751894,0.02345844534964587,0.023404393935718658,0.023354718494249,0.023309441641801352,0.02326858541246444,0.023232171258980066,0.023200220053761735,0.02317275208980249,0.023149787081471467,0.023131344165198627,0.023117441900047234,0.02310809826817355,0.02310333067517329,0.027103155944079953,0.028107590288986788,0.02811664927140941,0.028130347765885196,0.028148699947278196,0.028171719288878697,0.028199418561945362,0.028231809835131058,0.02826890447379192,0.02831071313917944,0.028357245787515254,0.0284085116689484,0.02846451932639478,0.02852527659425856,0.028590790597035377,0.028661067747797055,0.02873611374655775,0.028815933578521316,0.028900531512209723,0.02898991109747246,0.02908407516337678,0.02918302581597872,0.029286764435974815,0.02939529167623442,0.029508607459212688,0.02962671097424411,0.030749600673158007,0.027877274265774694,0.025009728730868472,0.02514696035350808,0.02528896476695379,0.025435736972614573,0.02558727134118274,0.025743561608973786,0.025904600874147525,0.026070381592810596,0.023240895579676416,0.020416134027310445,0.02159608754707824,0.021780746205299774,0.0219700995327895,0.022164136518692854,0.022362845604205657,0.022566214677735334,0.022774231069945666,0.018986881554919847,0.018204152371469787,0.01842602926147476,0.018652497498753067,0.01888354189599809,0.019119146800689407,0.019359296089331235,0.019603973161577047,0.019853160934240992,0.020106841835196298,0.016364997803395762,0.01562761030904232,0.015894660390792965,0.016166128683499755,0.016441995424019338,0.012722240452236477,0.012006843230681366,0.012295782881182722,0.01258903821206039,0.012886587723389069,0.009188409607478465,0.008494481767949959,0.008804781855851596,0.009119287296315337,0.009437975293288055,0.009760822823247348,0.0070878066319302185,0.004418903249661613,0.005754089028400529,0.006093340174007776,0.006436632751915028,0.0037839426817821084,0.0011352457507570607,0.0024905176500153725,0.002849734006523809,0.00321287038820859,0.0025799022949975214,0.005950805149764378,0.00932555427514857,0.009704124843781498,0.01008649182374114,0.009472629947290825,0.012862513698226746,0.01625611728822116,0.016653414606575413,0.017054379165204407,0.016458984066908298,0.019867201992256302,0.023279005175469377,0.023694365353716065,0.024113253711643086,0.024535640847638013,0.024961496758707513,0.026390790828385597,0.030823491803644937,0.031259567749901726,0.03169898599658378,0.0321417130997594,0.03358771482338642,0.03803695611580287,0.03848940106431522,0.03894501284035402,0.039403753661694615,0.039865584774861074,0.04033046644368653,0.04079835793779653,0.04126921752101633,0.041743002439703095,0.0422196689110041,0.042699172111042044,0.04318146616302846,0.04366650412530645,0.044154237979323725,0.04464461861753739,0.04513759583125139,0.045633118298387995,0.04613113357119461,0.046631588063886995,0.047134427040230464,0.04763959460106018,0.04814703367174205,0.04865668598957556,0.04916849209113993,0.049682391299585155,0.05019832171186932,0.050716220185943704,0.05123602232788732,0.051757662478992314,0.05228107370280193,0.05280618777210268,0.05333293515587234,0.054861245004626885,0.05239104513572667,0.04992226203423,0.050454820880206155,0.050988645580689024,0.05152365877977648,0.05205978184999472,0.05159693488051567,0.04813503667625714,0.04867400477877806,0.04921375549650196,0.04975420391777382,0.050295263903635284,0.05083684807434809,0.04337886780837115,0.03792123328808345,0.035463853603165355,0.03200663686799889,0.028549490317240925,0.025092320388923284,0.021635032809109778,0.01817753267811239,0.014719724556710452,0.011261512552375091,0.01580280039303235,0.018343491454077612,0.017883488727733245,0.01842269477839345,0.01896101171980724,0.019498341204750212,0.02303458440848391,0.026569641991977727,0.026103414043337075,0.026635800023937055,0.02716669874108478,0.02769600833630266,0.028223626273648703,0.029749449324959196,0.03427337354422326,0.03479529422018132,0.03531510581961922,0.03583270194785715,0.036347975329553424,0.03686081779579796,0.041371120265029204,0.04287877270374958,0.043383664070159283,0.04388568226720806,0.04438471411753657,0.04488064534939979,0.046373360582664974,0.04286274331644552,0.03334867594798762,0.026831039864895524,0.03130971558731893,0.033784582861911966,0.033255520660807815,0.03372240714328127,0.034185119634654274,0.03864353461153694,0.04009752766535192,0.04054697344726241,0.04099174562256219,0.04143171684699992,0.04186675875413032,0.04529674193966786,0.04872153592725993,0.04814100911256529,0.04855502871213785,0.048963460738939854,0.05236616998890147,0.05576302000891621,0.05515387304159961,0.055538589974870003,0.0559170303181755,0.05428905219757752,0.063654512346315,0.08101326603162498,0.0923651668508021,0.10471006642299727,0.11604781406560113,0.13337825648327112,0.16070123741661235,0.1790165971912891,0.16832417223926657,0.1586237948119541,0.14891529299903372,0.1381984909345223,0.13047320904356058,0.11673926428785056,0.11999647040039421,0.06424463814538627,-0.05951642407409852,-0.18828690872133352,-0.34506700657886435,-0.4788569034998166,-0.580656776953224,-0.6604667928356374,-0.7222871028467097,-0.7701178424396609,-0.7829591292686882,-0.7828110621520226,-0.7876737205506277,-0.7915471643786223,-0.805431433892924,-0.8293265495031356,-0.8192325114767326,-0.7831492997421744,-0.7510768740876378,-0.6960151748099223,-0.6409641236841634,-0.573923625182663,-0.4798935679475061,-0.38087382658711133,-0.31986426377177796,-0.25986473232429896,-0.20687507701106436,-0.16489513603365827,-0.12092474232382197,-0.08496372469010592,-0.04701190885673809,-0.022069118414975192,-0.014135175638624181,-0.0062099020717791,0.005706881114339951,0.014615352870750248,0.0245156920265166,0.036408077038533715,0.04329268573995315,0.048169695102836224,0.04803928105399405,0.049901618365831374,0.052756880600368705,0.052605240067473275,0.056446867781707155,0.05728193341778959,0.05911060526310952,0.06193305017040204,0.06174943351214257,0.0655599191366556,0.06636466932437385,0.06816384474112791,0.07095760439157867,0.07074610557434716,0.0745295038388388,0.07630795294063933,0.07308160479703876,0.06885060947385063,0.06461511523157965,0.06437526860911116,0.06113121450127956,0.056883096220957954,0.05263105557060514,0.05337523292794137,0.057115767306783985,0.057852796358749556,0.05758645633608103,0.057316882062355815,0.05704420692665675,0.05676856288873473,0.056490080485807004,0.05620888883942943,0.05692511566088121,0.060638887245706555,0.060350328446500026,0.06005956263640147,0.05976671168979389,0.05947189598331848,0.05917523440317625,0.058876844352478794,0.05757684176020347,0.06027534109019196,0.0629724553346025,0.06266829598090319,0.06236297297422372,0.06205659470155962,0.06174926799470934,0.06144109813791333,0.061132188875516844,0.060822642419653725,0.061512559456390184,0.05720203915344303,0.047891179197525224,0.044580075894047416,0.04026882430735228,0.03495751839160334,0.03464625109985639,0.03933511446040151,0.03802419959231734,0.03671359668205651,0.04040339496937738,0.042093682734826623,0.041784547265391006,0.041476074820136904,0.04116835061921496,0.043861458843758666,0.04655548262017779,0.04525050398261059,0.04494660384002874,0.04464386196981439,0.04734235702222049,0.050042166506098926,0.04874336675121821,0.04844603287522441,0.05215023877082947,0.05285605708828725,0.0525635592006862,0.052272815176994905,0.05198389377688664,0.05569686245019588,0.05641178731762592,0.05612873313426445,0.0558477632624023,0.05556893966612228,0.051292322922981234,0.04901797225901783,0.05074594560240896,0.04847629962460062,0.044209089765794476,0.04394437027596143,0.043682194268263516,0.04342261375371012,0.04216567965548851,0.0379114418279057,0.037659949097085185,0.038411249309389335,0.03516538936262862,0.031922415232525266,0.03168237201936828,0.03144530399927232,0.031211254653542846,0.02998026668082203,0.024752382016952637,0.020527641887496714,0.022306086888232178,0.007087757071805567,-0.00012730792828772198,0.005660931276072673,0.004452513953009119,0.0032474792746299795,0.007045866305081706,0.00984771398228214,0.008653061076188993,0.008461946148540728,0.012274407535889542,0.01409048332787025,0.011910211326676494,0.013733629017357089,0.017560773553607776,0.017391681727884467,0.016226389930513316,0.019064934127410407,0.0219073498439412,0.021753672128422163,0.02160393551084999,0.024458173978678277,0.027316420952495958,0.026178709244461706,0.026045071021314207,0.02991553778754393,0.03079014036378732,0.03066890884797378,0.03055187258416267,0.030439060153097195,0.030330499373564072,0.03022621730520652,0.030126240251231177,0.030030593761008414,0.029939302632565206,0.02985239091497008,0.029769881910609423,0.029691798177354612,0.029618161530619344,0.029548993045306615,0.029484313057644825,0.029424141166912422,0.029368496237050686,0.029317396398164015,0.02927085904790742,0.029228900852760614,0.02919153774918836,0.02915878494468664,0.029130656918714214,0.029107167423509217,0.029088329484790475,0.029074155402343094,0.029064656750488124,0.02905984437843586,0.029059728410522588,0.029064318246330482,0.030073622559131735,0.027087649294215387,0.02410640568268281,0.02412989828162216,0.02015813302507525,0.019191115273327675,0.01922884986052211,0.019271341128125515,0.019318592936457085,0.019370608665187188,0.019427391212158945,0.019488942992091023,0.019555265935161575,0.01962636148547322,0.01970223059939906,0.01978287374380969,0.019868290894181167,0.019958481532583918,0.020053444645552636,0.020153178721837077,0.020257681750033917,0.020366951216099577,0.020480984100744188,0.020599776876706624,0.020723325505910824,0.02085162543650336,0.020984671599772454,0.021122458406948465,0.021264979745886065,0.02141222897762817,0.021564198932851858,0.02172088190819629,0.02188226966247303,0.022048353412758757,0.026219123824136166,0.02739457097905561,0.029574684326317734,0.032759452625263565,0.03294886389140695,0.037142905343509454,0.03934156334898091,0.03554482337072311,0.026752669957499954,0.0189650868261519,0.015182057018510112,0.014403563059755355,0.014629587060552625,0.014860110758286332,0.015095115523892911,0.015334582357670889,0.015578491883420566,0.015826824342472408,0.01607955958760469,0.0163366770768508,0.0165981558671968,0.01686397460816965,0.01713411153531673,0.017408544463577105,0.0176872507805451,0.017970207439626792,0.018257390953089904,0.01854877738500769,0.018844342344097462,0.019144060976454262,0.019447907958180386,0.019755857487911296,0.02006788327923861,0.020383958553030733,0.02070405602965192,0.021028147921080285,0.021356205922925572,0.020688201207905915,0.016024104431694684,0.012363885771400428,0.016707514988887263,0.019054961464384804,0.018406194172332736,0.018761181641544104,0.01911989193709485,0.01948229265458874,0.01984835091277093,0.02021803334449076,0.02059130608757341,0.020968134775601173,0.021348484528605202,0.021732319943668532,0.0221196050854414,0.023510303475010947,0.027904378067774484,0.02830179120940695,0.028702504582392326,0.029106479169616756,0.029513675238141513,0.029924052329129168,0.03033756924768941,0.030754184052645555,0.031173854046222797,0.03159653576365916,0.032022184962740285,0.031450756614817804,0.03588220489419494,0.023316483172115376,0.007753544080818346,0.014193339691303139,0.014635821689465638,0.015080941429034891,0.015528649908070132,0.015978897748509205,0.016431635185004186,0.016886812053693717,0.016344377782471886,0.019804281381196255,0.023266471416250028,0.023730895958549356,0.02419750252681761,0.0246662380526248,0.0251370488640761,0.025609880674123193,0.026084678568823832,0.026561386995551023,0.030039949746477303,0.03352030992330789,0.03300240988014673,0.033486191170993676,0.03397159452369497,0.034458559829438004,0.03494702613220573,0.03543693161663343,0.035928213595828117,0.036420808499152024,0.033914651864647656,0.031409678350133696,0.03290582176609047,0.03340301510384017,0.033901190537202426,0.03440027940853754,0.03490021221476518,0.03540091859491892,0.035902327317679866,0.036404366268890806,0.03690696243905298,0.03741004191080717,0.03691352984795944,0.033417350495405285,0.02992142720709891,0.025425682509862605,0.02493003818745196,0.024434415353706156,0.02093873449919923,0.023442915523863038,0.008946877780522111,0.0014505401761012102,0.009953821330507477,0.013456639674733706,0.013958913418046358,0.017460560465308993,0.019961498351464234,0.020461644183824568,0.025960914584380712,0.03145922562121947,0.03195649271502524,0.0344526305456056,0.037947552983380886,0.0384411730318124,0.04293340276830222,0.044424153283566976,0.04491333462104623,0.045400855730375445,0.045886624442718904,0.046370547457054365,0.04685253032806014,0.04733247745404817,0.0488102920633869,0.05328587619006445,0.053759130627484386,0.05422995487296515,0.05469824708944267,0.05516390408749564,0.05562682131366858,0.0560868928388605,0.055544011348340666,0.05899806813183519,0.06244895305810121,0.0628965545230806,0.06334075939345696,0.06378145297211532,0.06421851898239017,0.06465183955707676,0.06508129522753307,0.06550676491287512,0.0649281259108273,0.06834525388867221,0.0627580228727442,0.047166305278553006,0.05056997203453349,0.05396889273084574,0.053362935673213555,0.05375196785739159,0.05413585494531273,0.05451446125694663,0.05788764975761081,0.06125528202515123,0.06061721819543727,0.06097331691267109,0.06132343530633576,0.0606674289854339,0.0670051520281996,0.07933645692676289,0.08766119444157022,0.09997921337647495,0.10929036032281915,0.1185944794005658,0.13189141200271948,0.14418099652901206,0.156463068093271,0.16873745821538472,0.16400399453995174,0.14626250068292923,0.13551279630759555,0.1217546973893071,0.12398801651630817,0.057212563203219616,-0.06657185541807098,-0.17836543302044106,-0.3521683615432267,-0.4829808279834784,-0.5728030109251336,-0.6576350773656497,-0.7224771801596119,-0.7673294559873517,-0.8071920237379094,-0.8300649832689324,-0.8299484145107737,-0.8218423769475182,-0.8177469094702607,-0.8096620304561223,-0.8085877379093496,-0.7925240096068247,-0.7364708033524158,-0.6894280575692865,-0.6303956923112151,-0.577373610527707,-0.5003616994473074,-0.38135983218042063,-0.3193678697006256,-0.26038566299874677,-0.20841305497327073,-0.17144988193553878,-0.13149597485285047,-0.09855116041053127,-0.06961526194752043,-0.04468810029042136,-0.019769494486018585,0.0031407375427951467,0.012042778406768512,0.01493681078182199,0.021823017115349813,0.02870157945429347,0.03257267929990795,0.040436497459600845,0.045293213900516605,0.04914300760486057,0.05298605643942808,0.05682253704712695,0.05665262475581295,0.058476493510668776,0.06429431582544559,0.06610626272139122,0.06591250365074217,0.06971320643594897,0.07050853722618886,0.07029866045557442,0.0700837388139664,0.06986393323973603,0.06963940292356458,0.0694103053139225,0.06917679612266714,0.06893902933075385,0.06869715719405728,0.06845133024929895,0.06820169732007741,0.06794840552299664,0.06769160027388954,0.06743142529413274,0.06716802261704913,0.06690153259439416,0.06663209390292307,0.06635984355103472,0.06608491688548918,0.06580744759819557,0.06552756773306626,0.06524540769293513,0.06496109624653515,0.0646747605355337,0.06438652608162093,0.06409651679364889,0.06380485497481808,0.0645116613283494,0.06321705496008029,0.04592115340915448,0.04362407276758844,0.0483259278559809,0.047026832327555126,0.04672689867403368,0.04642623821439276,0.04912496109610573,0.051823176280819006,0.05052099150666374,0.05021851325525599,0.04991584674520379,0.05261309593653174,0.05531036351640675,0.05400775086148661,0.05370535800494414,0.05340328362998452,0.05210162508050277,0.0548004783717327,0.057499938183740856,0.05720009782841112,0.05690104921173819,0.05560288281948307,0.05830568772151237,0.06100955156520525,0.06071456054233945,0.06042079935127519,0.06012835118093102,0.05983729771343278,0.05954771913140572,0.05925969412523181,0.05897329990027027,0.05868861218403931,0.05840570523335743,0.05812465184144189,0.057845523344963096,0.05756838963105247,0.05729331914426268,0.05702037889347783,0.0567496344587724,0.056481149998217,0.05621498825462938,0.05595121056226919,0.055689876853474735,0.055431045665240306,0.05517477414573259,0.05492111806074482,0.054670131800086785,0.05442186838391,0.054176379468966085,0.05393371535479739,0.053693924989858255,0.05045705598224194,0.046223154630597986,0.0509922659752388,0.057764433817999936,0.03253970070617648,0.02431810801613573,0.028099696184921932,0.026884504912169108,0.026672573223216416,0.026463939471356876,0.026258641343122058,0.02605671586504316,0.025858199408770297,0.025663127696107645,0.025471535803963608,0.025283458169215123,0.02509892859348511,0.024917980247832382,0.024740645677353,0.024566956805692354,0.024396944939467195,0.025230640771038048,0.02206807438118993,0.013909275265100132,0.01775427240185426,0.019603094322309705,0.01845576911919533,0.018312324425943095,0.018172787411010003,0.018037184784572217,0.017905542803563164,0.017777887275054832,0.01765424355954036,0.017534636574117204,0.01741909079557026,0.017307630263354322,0.017200278582475248,0.01809705892471067,0.02199799401881781,0.021903106118817517,0.021812416962822857,0.021725947748908517,0.02164371913113764,0.021565751221717958,0.021492063593052148,0.021422675279681933,0.021357604780125487,0.0212968700586076,0.021240488546682222,0.021188477144746826,0.020140852225006892,0.02309762963433129,0.02605882468141229,0.026024452097318757,0.025994525991263624,0.025969059828081405,0.02594806642429851,0.025931557948768114,0.025919545923193548,0.025912041222539844,0.02590905407533317,0.025910594063847846,0.0259166701241807,0.025927290546212588,0.025942462973456745,0.02596219440279384,0.025986491184093526,0.026015359019722278,0.026048802963937426,0.026086827422167176,0.026129436150176544,0.026176632253119007,0.026228418184473943,0.0262847957448696,0.02634576608079164,0.02641132968317717,0.026481486385894218,0.0265562353641068,0.026635575132525274,0.030719503537307787,0.031808017727585076,0.03190111410972588,0.03199878831083986,0.032101035163986956,0.03220784870418303,0.032319222165850106,0.03243514798015271,0.03255561777222059,0.0326806223582578,0.03281015174253855,0.032944195114289976,0.03308274084446205,0.024225776496412596,0.008373288903501024,0.011525264344763614,0.014681688723594481,0.013842547632535274,0.014007826333788304,0.014177509741177478,0.014351582417585437,0.014530028572280786,0.014712832056577262,0.015899976357825214,0.02009144458238399,0.020287219416665416,0.020487283078717514,0.02069161728684586,0.02090020324839011,0.02111302165462851,0.021330052675576437,0.02055127595623798,0.02377667061275253,0.027006215212850432,0.02723988772970818,0.02747766549102397,0.027719525149811297,0.02796544267379362,0.028215393339373188,0.028469351725498644,0.028727291707432046,0.02998918644885736,0.027255008393889595,0.02452472927457174,0.024798320144770288,0.025075751418649518,0.02535699288722844,0.025642013716138456,0.024930782440168754,0.02122326696862791,0.021519434612432713,0.021819252120456174,0.02212268569863876,0.02242970100874647,0.022740263160804228,0.02305433670543995,0.023371885626140166,0.023692873331418122,0.023017262648453794,0.0243450158197654,0.0306760944888858,0.01401045967816178,0.004348071841284461,0.011688891026400562,0.01103287701576302,0.011379989346846073,0.011730187285063913,0.01208342981043898,0.012439675610427886,0.012798883071112752,0.013161010268317633,0.016526014953975238,0.019893854523717325,0.01926448596257247,0.019637865795269174,0.020013950062965854,0.0203926943154987,0.020774053603562062,0.021157982469263866,0.0215444349366158,0.025933364495724986,0.02732472406666048,0.027718465946113196,0.0281145417633469,0.02851290245791069,0.02891349826820362,0.02931627872154096,0.02972119262416477,0.030128188051199965,0.030537212336557228,0.030948212062783982,0.03136113305086481,0.031775920349972585,0.0321925182271717,0.03261087015707484,0.03303091881145451,0.033452606048810854,0.03387587290389722,0.03430065957720483,0.034726905424408094,0.035154548945771996,0.03558352777552315,0.03601377867118595,0.036445237502885516,0.036877839242618865,0.037311517953495965,0.03774620677895231,0.03818183793193469,0.038618342684061745,0.03905565135476101,0.03949369330038423,0.03993239690330261,0.040371689560983796,0.040811497675052384,0.04125174664033575,0.041692360833897005,0.04313326360249835,0.040574377250055436,0.038015623040670576,0.038456921228157706,0.034898191096474164,0.0343393509985927,0.03178031839849142,0.023221009927174185,0.02066134147298542,0.020101228295311593,0.023540585104001484,0.013979326087363138,0.0014173649666705118,0.007854615133292844,0.009290989778048424,0.007726401917708542,0.011160764365412655,0.0145939896995491,0.015025990217075527,0.015456677879074683,0.014885964278161433,0.018313760624626092,0.02173997772170238,0.022164525914375788,0.022587315033555478,0.023008254362108578,0.025427252616524655,0.02884421791927459,0.029259057750955626,0.02967167889936989,0.03308198742268367,0.03548988861264185,0.03589528694381261,0.03629808602600921,0.03669818857703647,0.040095496404853825,0.0434899103742194,0.042881330351582904,0.04326965515472671,0.0436547825289782,0.04703660913440973,0.05041503051441479,0.04978994104098715,0.05016123386476071,0.050528800891633696,0.050892532775069346,0.05125231890848941,0.05160804741620485,0.05195960514444488,0.05230687765248712,0.05264974920389195,0.052988102757843596,0.053321819960601084,0.05365078113706183,0.05797486527620636,0.0592939499963995,0.059607911493668383,0.05991662449945669,0.060219962260327754,0.06051779652870872,0.06080999755532759,0.061096434081787325,0.061376973333280654,0.06165148101144851,0.061919821287385636,0.06218185679479656,0.06143744862486409,0.06468645632127498,0.072928737852027,0.07716414952528951,0.08539254585399714,0.08861377940347001,0.0988277006392087,0.13403415772031613,0.16623299610139053,0.16342405793821746,0.14960718159028696,0.14278220148822335,0.13494894828508322,0.12710724907175955,0.11725692757856421,0.11739780436922818,0.09252969703199959,0.005652420542410219,-0.09823421178613134,-0.24113038646465884,-0.38903628715530947,-0.5049520914491109,-0.5938779675687114,-0.6588140714838983,-0.715760544633174,-0.7367175121937113,-0.7266850818903376,-0.7236633434105616,-0.719652368304071,-0.7506522100175639,-0.7586629037609786,-0.7336844662362969,-0.7187168955546701,-0.6797601715257848,-0.642814256241542,-0.5998790948698753,-0.5539546166057265,-0.5090407357199445,-0.4301373527170193,-0.35524435571700075,-0.2953616221052322,-0.24048902025352747,-0.18962641109146136,-0.15677364947790384,-0.12593058536500745,-0.09409706474997608,-0.06227293049566729,-0.03545802311199056,-0.01865218149343051,-0.006855243541001144,0.006932953368771311,0.02271257201639812,0.03348377499557573,0.03824672438669183,0.03800158150691413,0.03774850677582353,0.03748765967320805,0.037219198737578674,0.03694328157267282,0.039660064849471016,0.04236970428969644,0.04107235462767567,0.040768169577053565,0.04045730182417892,0.04013990303724699,0.03981612387560868,0.040486113996125256,0.04415002204877197,0.04380799565057622,0.043460181350355426,0.04310672461074844,0.042747769810652314,0.042383460254035804,0.04601393817265417,0.046639344708636066,0.046259819880055425,0.04587550255598133,0.04548653045347219,0.0450930401455993,0.04369516707270396,0.04629304555376723,0.048886808782303226,0.04847658879586059,0.04806251644095194,0.04764472135990254,0.047223331996499196,0.0477984756048489,0.05137027824741702,0.05093886477133083,0.050504358775414815,0.05006688259445105,0.04962655730377895,0.04918350273020351,0.048737837462974706,0.051289678860159074,0.05383914303637273,0.05238634482875609,0.05193139776768345,0.05147441407402584,0.050015504673612474,0.05255477921174294,0.055092346050602176,0.054628312240224824,0.05416278348482548,0.05369586413099038,0.0532276571746093,0.05275826427251855,0.052287785754175795,0.0478163206395989,0.04634396667759451,0.04587082040115556,0.0453969771735295,0.0449225312124855,0.044447575603688644,0.043972202312530434,0.04349650219597222,0.043020565014398854,0.04254447944348069,0.04206833308604134,0.04159221248392926,0.04111620312989077,0.04064038947944257,0.040164854962741414,0.03968968199644894,0.039214951995589456,0.038740745385398914,0.03826714161316272,0.03779421916004044,0.03732205555287574,0.036850727375989004,0.03638031028295127,0.035910879008337365,0.035442507379456145,0.03497526832805632,0.033509233903564514,0.03604447528629483,0.03858106278504256,0.0381190658081489,0.03765855282985668,0.03719959137845125,0.03674224804306819,0.03628658848513795,0.03583267744979038,0.035380578777217134,0.03793035540931465,0.04048206937757835,0.03903578176912949,0.038591552697369275,0.038149441299080225,0.03770950574706203,0.037271803262715016,0.036836390127010496,0.03640332169140552,0.03997265238246602,0.04054443568616931,0.04011872411500202,0.03969556918434837,0.03927502141063699,0.038857130320334304,0.038441944460431615,0.03802951140886578,0.03761987778487262,0.037213089259271526,0.04080919055844591,0.041408225447990485,0.041010236699141556,0.04061526606448599,0.040223354275416706,0.039834541050423396,0.03944886510486548,0.03906636416066786,0.038687074955938525,0.03831103325450685,0.03793827385538184,0.03756883060212959,0.037202736392168576,0.03684002318598256,0.03648072201624986,0.03612486299688821,0.03577247533201474,0.035423587324820024,0.03507822638635559,0.03473641904423412,0.03439819095124182,0.03406356689386202,0.03373257080070969,0.033405225750875955,0.033081553982182224,0.032761576899343225,0.031445315083597145,0.034132788302243616,0.036824015502502694,0.0365190147787842,0.036217803335187426,0.03592039746972765,0.035626812577171686,0.035337063156454365,0.03505116281799987,0.030769124297181767,0.02649095949262524,0.03621667951999926,0.033946294722070565,0.0036798146724262917,0.006417248327169037,0.00915860428561859,0.007903890941812092,0.0076531164971883735,0.007406288952912411,0.007163416117687595,0.009924505610793777,0.012689564844764587,0.011458600986145028,0.011231620920826097,0.011008631245776807,0.010789638276263166,0.010574648052967678,0.011363666345891874,0.01515669864724865,0.014953750142433882,0.014754825671546153,0.014559929707951143,0.014369066357007887,0.01418223936092903,0.017999452097306023,0.018820707557271492,0.01864600830641608,0.018475356454956026,0.018308753649620844,0.018146201076350375,0.01798769946444953,0.017833249090642028,0.017682849783023105,0.0175365009249112,0.017394201458598643,0.017255949889001296,0.017121744287207273,0.01699158229392466,0.016865461122828378,0.01674337756380623,0.016625327986104117,0.016511308341370597,0.01640131416660091,0.016295340586980442,0.01919338231395194,0.02809543361512713,0.01300148825604307,-0.011088460469339992,-0.004174419518087724,-0.003256395837316385,-0.004334396259179692,-0.004408427508176101,-0.004478496206996745,-0.004544608870003242,-0.004606771899921626,-0.0046649915861935315,-0.004719274103425923,-0.004769625509939077,-0.004816051746412878,-0.004858558634631006,-0.004897151876323155,-0.0049318370521048704,-0.004962619620515075,-0.004989504917150979,-0.0050124981539003965,-0.005031604418271184,-0.005046828672817812,-0.005058175754664773,-0.0050656503751269275,-0.005069257119426403,-0.005069000446506183,-0.005064884688940063,-0.005056914052939038,-0.005045092618453869,-0.005029424339373811,-0.005009913043821382,-0.004986562434543006,-0.004959376089395569,-0.004928357461928705,-0.004893509882062701,-0.004854836556862044,-0.004812340571404342,-0.0047660248897447785,-0.004715892355975821,-0.00466194569538219,-0.004604187515691083,-0.004542620308417417,-0.004477246450304194,-0.004408068204857837,-0.004335087723978448,-0.004258307049684974,-0.0041777281159351455,-0.004093352750540232,-0.004005182677174483,-0.003913219517479281,-0.003817464793261869,-0.0037179199287887647,-0.0036145862531736586,-0.003507465002859842,-0.0033965573241971393,-0.003281864276113277,-0.003163386832879724,-0.003041125886971842,-0.002915082252023523,-0.0027852566658761076,-0.002651649793721636,-0.0025142622313404743,-0.0023730945084331732,-0.0022281470920466583,-0.002079420390094646,-0.0019269147549723503,-0.0017706304872654455,-0.0016105678395532466
